time,ECG
2023-08-09 18:14:01.058082,-152.0
2023-08-09 18:14:01.065773,-152.0
2023-08-09 18:14:01.073463,-145.0
2023-08-09 18:14:01.081154,-140.0
2023-08-09 18:14:01.088844,-145.0
2023-08-09 18:14:01.096535,-145.0
2023-08-09 18:14:01.104225,-138.0
2023-08-09 18:14:01.111916,-133.0
2023-08-09 18:14:01.119606,-133.0
2023-08-09 18:14:01.127297,-133.0
2023-08-09 18:14:01.134988,-133.0
2023-08-09 18:14:01.142678,-126.0
2023-08-09 18:14:01.150369,-119.0
2023-08-09 18:14:01.158059,-117.0
2023-08-09 18:14:01.165750,-112.0
2023-08-09 18:14:01.173440,-109.0
2023-08-09 18:14:01.181131,-109.0
2023-08-09 18:14:01.188821,-107.0
2023-08-09 18:14:01.196512,-102.0
2023-08-09 18:14:01.204202,-100.0
2023-08-09 18:14:01.211893,-97.0
2023-08-09 18:14:01.219584,-93.0
2023-08-09 18:14:01.227274,-90.0
2023-08-09 18:14:01.234965,-90.0
2023-08-09 18:14:01.242655,-88.0
2023-08-09 18:14:01.250346,-76.0
2023-08-09 18:14:01.258036,-59.0
2023-08-09 18:14:01.265727,-40.0
2023-08-09 18:14:01.273417,-28.0
2023-08-09 18:14:01.281108,-33.0
2023-08-09 18:14:01.288798,-52.0
2023-08-09 18:14:01.296489,-69.0
2023-08-09 18:14:01.304180,-76.0
2023-08-09 18:14:01.311870,-76.0
2023-08-09 18:14:01.319561,-76.0
2023-08-09 18:14:01.327251,-76.0
2023-08-09 18:14:01.334942,-74.0
2023-08-09 18:14:01.342632,-71.0
2023-08-09 18:14:01.350323,-66.0
2023-08-09 18:14:01.358013,-76.0
2023-08-09 18:14:01.365704,-64.0
2023-08-09 18:14:01.373394,128.0
2023-08-09 18:14:01.381085,649.0
2023-08-09 18:14:01.388775,1268.0
2023-08-09 18:14:01.396466,1461.0
2023-08-09 18:14:01.404157,1024.0
2023-08-09 18:14:01.411847,358.0
2023-08-09 18:14:01.419538,-59.0
2023-08-09 18:14:01.427228,-138.0
2023-08-09 18:14:01.434919,-121.0
2023-08-09 18:14:01.442609,-176.0
2023-08-09 18:14:01.450300,-210.0
2023-08-09 18:14:01.457990,-188.0
2023-08-09 18:14:01.465681,-183.0
2023-08-09 18:14:01.473371,-181.0
2023-08-09 18:14:01.481062,-169.0
2023-08-09 18:14:01.488753,-160.0
2023-08-09 18:14:01.496443,-150.0
2023-08-09 18:14:01.504134,-133.0
2023-08-09 18:14:01.511824,-114.0
2023-08-09 18:14:01.519515,-97.0
2023-08-09 18:14:01.527205,-81.0
2023-08-09 18:14:01.534896,-64.0
2023-08-09 18:14:01.542586,-42.0
2023-08-09 18:14:01.550277,-23.0
2023-08-09 18:14:01.557967,-9.0
2023-08-09 18:14:01.565658,7.0
2023-08-09 18:14:01.573349,28.0
2023-08-09 18:14:01.581039,45.0
2023-08-09 18:14:01.588730,64.0
2023-08-09 18:14:01.596420,85.0
2023-08-09 18:14:01.604111,100.0
2023-08-09 18:14:01.611801,107.0
2023-08-09 18:14:01.619492,112.0
2023-08-09 18:14:01.627182,109.0
2023-08-09 18:14:01.634873,97.0
2023-08-09 18:14:01.642563,78.0
2023-08-09 18:14:01.650254,52.0
2023-08-09 18:14:01.657944,21.0
2023-08-09 18:14:01.665635,-21.0
2023-08-09 18:14:01.673326,-66.0
2023-08-09 18:14:01.681016,-102.0
2023-08-09 18:14:01.688707,-128.0
2023-08-09 18:14:01.696397,-155.0
2023-08-09 18:14:01.704088,-171.0
2023-08-09 18:14:01.711778,-183.0
2023-08-09 18:14:01.719469,-188.0
2023-08-09 18:14:01.727159,-191.0
2023-08-09 18:14:01.734850,-191.0
2023-08-09 18:14:01.742540,-183.0
2023-08-09 18:14:01.750231,-176.0
2023-08-09 18:14:01.757922,-169.0
2023-08-09 18:14:01.765612,-162.0
2023-08-09 18:14:01.773303,-155.0
2023-08-09 18:14:01.780993,-145.0
2023-08-09 18:14:01.788684,-138.0
2023-08-09 18:14:01.796374,-131.0
2023-08-09 18:14:01.804065,-126.0
2023-08-09 18:14:01.811755,-121.0
2023-08-09 18:14:01.819446,-119.0
2023-08-09 18:14:01.827136,-121.0
2023-08-09 18:14:01.834827,-121.0
2023-08-09 18:14:01.842518,-121.0
2023-08-09 18:14:01.850208,-121.0
2023-08-09 18:14:01.857899,-119.0
2023-08-09 18:14:01.865589,-117.0
2023-08-09 18:14:01.873280,-119.0
2023-08-09 18:14:01.880970,-119.0
2023-08-09 18:14:01.888661,-117.0
2023-08-09 18:14:01.896351,-114.0
2023-08-09 18:14:01.904042,-112.0
2023-08-09 18:14:01.911732,-109.0
2023-08-09 18:14:01.919423,-107.0
2023-08-09 18:14:01.927114,-107.0
2023-08-09 18:14:01.934804,-105.0
2023-08-09 18:14:01.942495,-105.0
2023-08-09 18:14:01.950185,-109.0
2023-08-09 18:14:01.957876,-107.0
2023-08-09 18:14:01.965566,-100.0
2023-08-09 18:14:01.973257,-102.0
2023-08-09 18:14:01.980947,-109.0
2023-08-09 18:14:01.988638,-109.0
2023-08-09 18:14:01.996328,-102.0
2023-08-09 18:14:02.004019,-105.0
2023-08-09 18:14:02.011709,-105.0
2023-08-09 18:14:02.019400,-100.0
2023-08-09 18:14:02.027091,-97.0
2023-08-09 18:14:02.034781,-95.0
2023-08-09 18:14:02.042472,-90.0
2023-08-09 18:14:02.050162,-90.0
2023-08-09 18:14:02.057853,-88.0
2023-08-09 18:14:02.065543,-76.0
2023-08-09 18:14:02.073234,-59.0
2023-08-09 18:14:02.080924,-45.0
2023-08-09 18:14:02.088615,-40.0
2023-08-09 18:14:02.096305,-45.0
2023-08-09 18:14:02.103996,-64.0
2023-08-09 18:14:02.111687,-81.0
2023-08-09 18:14:02.119377,-83.0
2023-08-09 18:14:02.127068,-81.0
2023-08-09 18:14:02.134758,-78.0
2023-08-09 18:14:02.142449,-78.0
2023-08-09 18:14:02.150139,-76.0
2023-08-09 18:14:02.157830,-74.0
2023-08-09 18:14:02.165520,-71.0
2023-08-09 18:14:02.173211,-85.0
2023-08-09 18:14:02.180901,-57.0
2023-08-09 18:14:02.188592,210.0
2023-08-09 18:14:02.196283,783.0
2023-08-09 18:14:02.203973,1337.0
2023-08-09 18:14:02.211664,1416.0
2023-08-09 18:14:02.219354,955.0
2023-08-09 18:14:02.227045,327.0
2023-08-09 18:14:02.234735,-78.0
2023-08-09 18:14:02.242426,-160.0
2023-08-09 18:14:02.250116,-136.0
2023-08-09 18:14:02.257807,-181.0
2023-08-09 18:14:02.265497,-217.0
2023-08-09 18:14:02.273188,-195.0
2023-08-09 18:14:02.280878,-183.0
2023-08-09 18:14:02.288569,-183.0
2023-08-09 18:14:02.296260,-167.0
2023-08-09 18:14:02.303950,-150.0
2023-08-09 18:14:02.311641,-138.0
2023-08-09 18:14:02.319331,-124.0
2023-08-09 18:14:02.327022,-107.0
2023-08-09 18:14:02.334712,-93.0
2023-08-09 18:14:02.342403,-78.0
2023-08-09 18:14:02.350093,-59.0
2023-08-09 18:14:02.357784,-38.0
2023-08-09 18:14:02.365474,-19.0
2023-08-09 18:14:02.373165,0.0
2023-08-09 18:14:02.380856,19.0
2023-08-09 18:14:02.388546,35.0
2023-08-09 18:14:02.396237,54.0
2023-08-09 18:14:02.403927,78.0
2023-08-09 18:14:02.411618,97.0
2023-08-09 18:14:02.419308,112.0
2023-08-09 18:14:02.426999,121.0
2023-08-09 18:14:02.434689,124.0
2023-08-09 18:14:02.442380,121.0
2023-08-09 18:14:02.450070,112.0
2023-08-09 18:14:02.457761,88.0
2023-08-09 18:14:02.465452,54.0
2023-08-09 18:14:02.473142,16.0
2023-08-09 18:14:02.480833,-28.0
2023-08-09 18:14:02.488523,-76.0
2023-08-09 18:14:02.496214,-114.0
2023-08-09 18:14:02.503904,-145.0
2023-08-09 18:14:02.511595,-169.0
2023-08-09 18:14:02.519285,-188.0
2023-08-09 18:14:02.526976,-198.0
2023-08-09 18:14:02.534666,-200.0
2023-08-09 18:14:02.542357,-200.0
2023-08-09 18:14:02.550047,-198.0
2023-08-09 18:14:02.557738,-193.0
2023-08-09 18:14:02.565429,-191.0
2023-08-09 18:14:02.573119,-186.0
2023-08-09 18:14:02.580810,-179.0
2023-08-09 18:14:02.588500,-169.0
2023-08-09 18:14:02.596191,-160.0
2023-08-09 18:14:02.603881,-152.0
2023-08-09 18:14:02.611572,-145.0
2023-08-09 18:14:02.619262,-143.0
2023-08-09 18:14:02.626953,-138.0
2023-08-09 18:14:02.634643,-131.0
2023-08-09 18:14:02.642334,-126.0
2023-08-09 18:14:02.650025,-131.0
2023-08-09 18:14:02.657715,-136.0
2023-08-09 18:14:02.665406,-138.0
2023-08-09 18:14:02.673096,-133.0
2023-08-09 18:14:02.680787,-131.0
2023-08-09 18:14:02.688477,-131.0
2023-08-09 18:14:02.696168,-131.0
2023-08-09 18:14:02.703858,-133.0
2023-08-09 18:14:02.711549,-131.0
2023-08-09 18:14:02.719239,-126.0
2023-08-09 18:14:02.726930,-124.0
2023-08-09 18:14:02.734621,-121.0
2023-08-09 18:14:02.742311,-119.0
2023-08-09 18:14:02.750002,-117.0
2023-08-09 18:14:02.757692,-117.0
2023-08-09 18:14:02.765383,-114.0
2023-08-09 18:14:02.773073,-109.0
2023-08-09 18:14:02.780764,-105.0
2023-08-09 18:14:02.788454,-102.0
2023-08-09 18:14:02.796145,-105.0
2023-08-09 18:14:02.803835,-102.0
2023-08-09 18:14:02.811526,-102.0
2023-08-09 18:14:02.819217,-100.0
2023-08-09 18:14:02.826907,-97.0
2023-08-09 18:14:02.834598,-95.0
2023-08-09 18:14:02.842288,-95.0
2023-08-09 18:14:02.849979,-93.0
2023-08-09 18:14:02.857669,-88.0
2023-08-09 18:14:02.865360,-85.0
2023-08-09 18:14:02.873050,-83.0
2023-08-09 18:14:02.880741,-83.0
2023-08-09 18:14:02.888431,-78.0
2023-08-09 18:14:02.896122,-64.0
2023-08-09 18:14:02.903812,-45.0
2023-08-09 18:14:02.911503,-33.0
2023-08-09 18:14:02.919194,-28.0
2023-08-09 18:14:02.926884,-33.0
2023-08-09 18:14:02.934575,-52.0
2023-08-09 18:14:02.942265,-71.0
2023-08-09 18:14:02.949956,-76.0
2023-08-09 18:14:02.957646,-76.0
2023-08-09 18:14:02.965337,-83.0
2023-08-09 18:14:02.973027,-85.0
2023-08-09 18:14:02.980718,-78.0
2023-08-09 18:14:02.988408,-74.0
2023-08-09 18:14:02.996099,-74.0
2023-08-09 18:14:03.003790,-83.0
2023-08-09 18:14:03.011480,-64.0
2023-08-09 18:14:03.019171,164.0
2023-08-09 18:14:03.026861,683.0
2023-08-09 18:14:03.034552,1227.0
2023-08-09 18:14:03.042242,1382.0
2023-08-09 18:14:03.049933,1012.0
2023-08-09 18:14:03.057623,401.0
2023-08-09 18:14:03.065314,-57.0
2023-08-09 18:14:03.073004,-181.0
2023-08-09 18:14:03.080695,-143.0
2023-08-09 18:14:03.088386,-176.0
2023-08-09 18:14:03.096076,-222.0
2023-08-09 18:14:03.103767,-205.0
2023-08-09 18:14:03.111457,-193.0
2023-08-09 18:14:03.119148,-198.0
2023-08-09 18:14:03.126838,-181.0
2023-08-09 18:14:03.134529,-162.0
2023-08-09 18:14:03.142219,-150.0
2023-08-09 18:14:03.149910,-140.0
2023-08-09 18:14:03.157600,-131.0
2023-08-09 18:14:03.165291,-114.0
2023-08-09 18:14:03.172981,-97.0
2023-08-09 18:14:03.180672,-81.0
2023-08-09 18:14:03.188363,-62.0
2023-08-09 18:14:03.196053,-47.0
2023-08-09 18:14:03.203744,-31.0
2023-08-09 18:14:03.211434,-9.0
2023-08-09 18:14:03.219125,9.0
2023-08-09 18:14:03.226815,28.0
2023-08-09 18:14:03.234506,50.0
2023-08-09 18:14:03.242196,66.0
2023-08-09 18:14:03.249887,83.0
2023-08-09 18:14:03.257577,95.0
2023-08-09 18:14:03.265268,100.0
2023-08-09 18:14:03.272959,95.0
2023-08-09 18:14:03.280649,88.0
2023-08-09 18:14:03.288340,71.0
2023-08-09 18:14:03.296030,45.0
2023-08-09 18:14:03.303721,9.0
2023-08-09 18:14:03.311411,-26.0
2023-08-09 18:14:03.319102,-64.0
2023-08-09 18:14:03.326792,-102.0
2023-08-09 18:14:03.334483,-136.0
2023-08-09 18:14:03.342173,-155.0
2023-08-09 18:14:03.349864,-171.0
2023-08-09 18:14:03.357555,-183.0
2023-08-09 18:14:03.365245,-186.0
2023-08-09 18:14:03.372936,-186.0
2023-08-09 18:14:03.380626,-188.0
2023-08-09 18:14:03.388317,-186.0
2023-08-09 18:14:03.396007,-179.0
2023-08-09 18:14:03.403698,-171.0
2023-08-09 18:14:03.411388,-169.0
2023-08-09 18:14:03.419079,-164.0
2023-08-09 18:14:03.426769,-160.0
2023-08-09 18:14:03.434460,-155.0
2023-08-09 18:14:03.442150,-152.0
2023-08-09 18:14:03.449841,-150.0
2023-08-09 18:14:03.457532,-145.0
2023-08-09 18:14:03.465222,-145.0
2023-08-09 18:14:03.472913,-145.0
2023-08-09 18:14:03.480603,-148.0
2023-08-09 18:14:03.488294,-143.0
2023-08-09 18:14:03.495984,-140.0
2023-08-09 18:14:03.503675,-140.0
2023-08-09 18:14:03.511365,-140.0
2023-08-09 18:14:03.519056,-138.0
2023-08-09 18:14:03.526746,-136.0
2023-08-09 18:14:03.534437,-136.0
2023-08-09 18:14:03.542128,-136.0
2023-08-09 18:14:03.549818,-136.0
2023-08-09 18:14:03.557509,-133.0
2023-08-09 18:14:03.565199,-131.0
2023-08-09 18:14:03.572890,-128.0
2023-08-09 18:14:03.580580,-124.0
2023-08-09 18:14:03.588271,-121.0
2023-08-09 18:14:03.595961,-121.0
2023-08-09 18:14:03.603652,-121.0
2023-08-09 18:14:03.611342,-117.0
2023-08-09 18:14:03.619033,-112.0
2023-08-09 18:14:03.626724,-112.0
2023-08-09 18:14:03.634414,-112.0
2023-08-09 18:14:03.642105,-109.0
2023-08-09 18:14:03.649795,-107.0
2023-08-09 18:14:03.657486,-105.0
2023-08-09 18:14:03.665176,-100.0
2023-08-09 18:14:03.672867,-97.0
2023-08-09 18:14:03.680557,-97.0
2023-08-09 18:14:03.688248,-100.0
2023-08-09 18:14:03.695938,-107.0
2023-08-09 18:14:03.703629,-105.0
2023-08-09 18:14:03.711319,-100.0
2023-08-09 18:14:03.719010,-100.0
2023-08-09 18:14:03.726701,-100.0
2023-08-09 18:14:03.734391,-93.0
2023-08-09 18:14:03.742082,-93.0
2023-08-09 18:14:03.749772,-93.0
2023-08-09 18:14:03.757463,-90.0
2023-08-09 18:14:03.765153,-88.0
2023-08-09 18:14:03.772844,-85.0
2023-08-09 18:14:03.780534,-83.0
2023-08-09 18:14:03.788225,-78.0
2023-08-09 18:14:03.795915,-66.0
2023-08-09 18:14:03.803606,-50.0
2023-08-09 18:14:03.811297,-40.0
2023-08-09 18:14:03.818987,-33.0
2023-08-09 18:14:03.826678,-42.0
2023-08-09 18:14:03.834368,-69.0
2023-08-09 18:14:03.842059,-83.0
2023-08-09 18:14:03.849749,-81.0
2023-08-09 18:14:03.857440,-83.0
2023-08-09 18:14:03.865130,-85.0
2023-08-09 18:14:03.872821,-81.0
2023-08-09 18:14:03.880511,-78.0
2023-08-09 18:14:03.888202,-76.0
2023-08-09 18:14:03.895893,-71.0
2023-08-09 18:14:03.903583,-81.0
2023-08-09 18:14:03.911274,-21.0
2023-08-09 18:14:03.918964,286.0
2023-08-09 18:14:03.926655,840.0
2023-08-09 18:14:03.934345,1294.0
2023-08-09 18:14:03.942036,1273.0
2023-08-09 18:14:03.949726,781.0
2023-08-09 18:14:03.957417,198.0
2023-08-09 18:14:03.965107,-126.0
2023-08-09 18:14:03.972798,-157.0
2023-08-09 18:14:03.980489,-148.0
2023-08-09 18:14:03.988179,-210.0
2023-08-09 18:14:03.995870,-234.0
2023-08-09 18:14:04.003560,-212.0
2023-08-09 18:14:04.011251,-207.0
2023-08-09 18:14:04.018941,-198.0
2023-08-09 18:14:04.026632,-179.0
2023-08-09 18:14:04.034322,-169.0
2023-08-09 18:14:04.042013,-162.0
2023-08-09 18:14:04.049703,-145.0
2023-08-09 18:14:04.057394,-133.0
2023-08-09 18:14:04.065084,-119.0
2023-08-09 18:14:04.072775,-97.0
2023-08-09 18:14:04.080466,-81.0
2023-08-09 18:14:04.088156,-69.0
2023-08-09 18:14:04.095847,-54.0
2023-08-09 18:14:04.103537,-38.0
2023-08-09 18:14:04.111228,-19.0
2023-08-09 18:14:04.118918,0.0
2023-08-09 18:14:04.126609,23.0
2023-08-09 18:14:04.134299,42.0
2023-08-09 18:14:04.141990,59.0
2023-08-09 18:14:04.149680,76.0
2023-08-09 18:14:04.157371,88.0
2023-08-09 18:14:04.165062,90.0
2023-08-09 18:14:04.172752,88.0
2023-08-09 18:14:04.180443,81.0
2023-08-09 18:14:04.188133,66.0
2023-08-09 18:14:04.195824,42.0
2023-08-09 18:14:04.203514,9.0
2023-08-09 18:14:04.211205,-26.0
2023-08-09 18:14:04.218895,-59.0
2023-08-09 18:14:04.226586,-102.0
2023-08-09 18:14:04.234276,-145.0
2023-08-09 18:14:04.241967,-167.0
2023-08-09 18:14:04.249658,-179.0
2023-08-09 18:14:04.257348,-195.0
2023-08-09 18:14:04.265039,-200.0
2023-08-09 18:14:04.272729,-203.0
2023-08-09 18:14:04.280420,-207.0
2023-08-09 18:14:04.288110,-205.0
2023-08-09 18:14:04.295801,-195.0
2023-08-09 18:14:04.303491,-188.0
2023-08-09 18:14:04.311182,-183.0
2023-08-09 18:14:04.318872,-179.0
2023-08-09 18:14:04.326563,-179.0
2023-08-09 18:14:04.334253,-179.0
2023-08-09 18:14:04.341944,-174.0
2023-08-09 18:14:04.349635,-167.0
2023-08-09 18:14:04.357325,-164.0
2023-08-09 18:14:04.365016,-164.0
2023-08-09 18:14:04.372706,-162.0
2023-08-09 18:14:04.380397,-160.0
2023-08-09 18:14:04.388087,-157.0
2023-08-09 18:14:04.395778,-155.0
2023-08-09 18:14:04.403468,-152.0
2023-08-09 18:14:04.411159,-155.0
2023-08-09 18:14:04.418849,-155.0
2023-08-09 18:14:04.426540,-148.0
2023-08-09 18:14:04.434231,-148.0
2023-08-09 18:14:04.441921,-148.0
2023-08-09 18:14:04.449612,-145.0
2023-08-09 18:14:04.457302,-140.0
2023-08-09 18:14:04.464993,-140.0
2023-08-09 18:14:04.472683,-138.0
2023-08-09 18:14:04.480374,-138.0
2023-08-09 18:14:04.488064,-140.0
2023-08-09 18:14:04.495755,-143.0
2023-08-09 18:14:04.503445,-138.0
2023-08-09 18:14:04.511136,-133.0
2023-08-09 18:14:04.518827,-131.0
2023-08-09 18:14:04.526517,-128.0
2023-08-09 18:14:04.534208,-128.0
2023-08-09 18:14:04.541898,-126.0
2023-08-09 18:14:04.549589,-124.0
2023-08-09 18:14:04.557279,-124.0
2023-08-09 18:14:04.564970,-119.0
2023-08-09 18:14:04.572660,-117.0
2023-08-09 18:14:04.580351,-112.0
2023-08-09 18:14:04.588041,-109.0
2023-08-09 18:14:04.595732,-109.0
2023-08-09 18:14:04.603422,-107.0
2023-08-09 18:14:04.611113,-102.0
2023-08-09 18:14:04.618804,-97.0
2023-08-09 18:14:04.626494,-97.0
2023-08-09 18:14:04.634185,-97.0
2023-08-09 18:14:04.641875,-93.0
2023-08-09 18:14:04.649566,-93.0
2023-08-09 18:14:04.657256,-93.0
2023-08-09 18:14:04.664947,-85.0
2023-08-09 18:14:04.672637,-71.0
2023-08-09 18:14:04.680328,-54.0
2023-08-09 18:14:04.688018,-45.0
2023-08-09 18:14:04.695709,-38.0
2023-08-09 18:14:04.703400,-40.0
2023-08-09 18:14:04.711090,-59.0
2023-08-09 18:14:04.718781,-78.0
2023-08-09 18:14:04.726471,-83.0
2023-08-09 18:14:04.734162,-81.0
2023-08-09 18:14:04.741852,-83.0
2023-08-09 18:14:04.749543,-78.0
2023-08-09 18:14:04.757233,-74.0
2023-08-09 18:14:04.764924,-71.0
2023-08-09 18:14:04.772614,-69.0
2023-08-09 18:14:04.780305,-83.0
2023-08-09 18:14:04.787996,-64.0
2023-08-09 18:14:04.795686,164.0
2023-08-09 18:14:04.803377,695.0
2023-08-09 18:14:04.811067,1258.0
2023-08-09 18:14:04.818758,1394.0
2023-08-09 18:14:04.826448,969.0
2023-08-09 18:14:04.834139,341.0
2023-08-09 18:14:04.841829,-74.0
2023-08-09 18:14:04.849520,-167.0
2023-08-09 18:14:04.857210,-138.0
2023-08-09 18:14:04.864901,-179.0
2023-08-09 18:14:04.872591,-219.0
2023-08-09 18:14:04.880282,-200.0
2023-08-09 18:14:04.887973,-188.0
2023-08-09 18:14:04.895663,-188.0
2023-08-09 18:14:04.903354,-174.0
2023-08-09 18:14:04.911044,-155.0
2023-08-09 18:14:04.918735,-143.0
2023-08-09 18:14:04.926425,-128.0
2023-08-09 18:14:04.934116,-112.0
2023-08-09 18:14:04.941806,-95.0
2023-08-09 18:14:04.949497,-81.0
2023-08-09 18:14:04.957187,-64.0
2023-08-09 18:14:04.964878,-47.0
2023-08-09 18:14:04.972569,-31.0
2023-08-09 18:14:04.980259,-14.0
2023-08-09 18:14:04.987950,2.0
2023-08-09 18:14:04.995640,14.0
2023-08-09 18:14:05.003331,31.0
2023-08-09 18:14:05.011021,50.0
2023-08-09 18:14:05.018712,64.0
2023-08-09 18:14:05.026402,76.0
2023-08-09 18:14:05.034093,85.0
2023-08-09 18:14:05.041783,90.0
2023-08-09 18:14:05.049474,85.0
2023-08-09 18:14:05.057165,78.0
2023-08-09 18:14:05.064855,62.0
2023-08-09 18:14:05.072546,40.0
2023-08-09 18:14:05.080236,11.0
2023-08-09 18:14:05.087927,-26.0
2023-08-09 18:14:05.095617,-66.0
2023-08-09 18:14:05.103308,-100.0
2023-08-09 18:14:05.110998,-131.0
2023-08-09 18:14:05.118689,-157.0
2023-08-09 18:14:05.126379,-176.0
2023-08-09 18:14:05.134070,-186.0
2023-08-09 18:14:05.141761,-191.0
2023-08-09 18:14:05.149451,-193.0
2023-08-09 18:14:05.157142,-191.0
2023-08-09 18:14:05.164832,-186.0
2023-08-09 18:14:05.172523,-181.0
2023-08-09 18:14:05.180213,-174.0
2023-08-09 18:14:05.187904,-167.0
2023-08-09 18:14:05.195594,-160.0
2023-08-09 18:14:05.203285,-155.0
2023-08-09 18:14:05.210975,-152.0
2023-08-09 18:14:05.218666,-150.0
2023-08-09 18:14:05.226356,-148.0
2023-08-09 18:14:05.234047,-145.0
2023-08-09 18:14:05.241738,-143.0
2023-08-09 18:14:05.249428,-140.0
2023-08-09 18:14:05.257119,-138.0
2023-08-09 18:14:05.264809,-136.0
2023-08-09 18:14:05.272500,-138.0
2023-08-09 18:14:05.280190,-138.0
2023-08-09 18:14:05.287881,-136.0
2023-08-09 18:14:05.295571,-133.0
2023-08-09 18:14:05.303262,-133.0
2023-08-09 18:14:05.310952,-133.0
2023-08-09 18:14:05.318643,-131.0
2023-08-09 18:14:05.326334,-126.0
2023-08-09 18:14:05.334024,-126.0
2023-08-09 18:14:05.341715,-124.0
2023-08-09 18:14:05.349405,-121.0
2023-08-09 18:14:05.357096,-126.0
2023-08-09 18:14:05.364786,-128.0
2023-08-09 18:14:05.372477,-124.0
2023-08-09 18:14:05.380167,-121.0
2023-08-09 18:14:05.387858,-119.0
2023-08-09 18:14:05.395548,-117.0
2023-08-09 18:14:05.403239,-114.0
2023-08-09 18:14:05.410930,-112.0
2023-08-09 18:14:05.418620,-109.0
2023-08-09 18:14:05.426311,-107.0
2023-08-09 18:14:05.434001,-102.0
2023-08-09 18:14:05.441692,-100.0
2023-08-09 18:14:05.449382,-100.0
2023-08-09 18:14:05.457073,-97.0
2023-08-09 18:14:05.464763,-95.0
2023-08-09 18:14:05.472454,-93.0
2023-08-09 18:14:05.480144,-90.0
2023-08-09 18:14:05.487835,-90.0
2023-08-09 18:14:05.495525,-93.0
2023-08-09 18:14:05.503216,-95.0
2023-08-09 18:14:05.510907,-90.0
2023-08-09 18:14:05.518597,-90.0
2023-08-09 18:14:05.526288,-90.0
2023-08-09 18:14:05.533978,-90.0
2023-08-09 18:14:05.541669,-88.0
2023-08-09 18:14:05.549359,-83.0
2023-08-09 18:14:05.557050,-81.0
2023-08-09 18:14:05.564740,-83.0
2023-08-09 18:14:05.572431,-81.0
2023-08-09 18:14:05.580121,-71.0
2023-08-09 18:14:05.587812,-59.0
2023-08-09 18:14:05.595503,-42.0
2023-08-09 18:14:05.603193,-33.0
2023-08-09 18:14:05.610884,-33.0
2023-08-09 18:14:05.618574,-40.0
2023-08-09 18:14:05.626265,-62.0
2023-08-09 18:14:05.633955,-76.0
2023-08-09 18:14:05.641646,-78.0
2023-08-09 18:14:05.649336,-78.0
2023-08-09 18:14:05.657027,-76.0
2023-08-09 18:14:05.664717,-74.0
2023-08-09 18:14:05.672408,-71.0
2023-08-09 18:14:05.680099,-69.0
2023-08-09 18:14:05.687789,-69.0
2023-08-09 18:14:05.695480,-78.0
2023-08-09 18:14:05.703170,-19.0
2023-08-09 18:14:05.710861,284.0
2023-08-09 18:14:05.718551,821.0
2023-08-09 18:14:05.726242,1268.0
2023-08-09 18:14:05.733932,1270.0
2023-08-09 18:14:05.741623,821.0
2023-08-09 18:14:05.749313,246.0
2023-08-09 18:14:05.757004,-114.0
2023-08-09 18:14:05.764694,-160.0
2023-08-09 18:14:05.772385,-131.0
2023-08-09 18:14:05.780076,-186.0
2023-08-09 18:14:05.787766,-212.0
2023-08-09 18:14:05.795457,-188.0
2023-08-09 18:14:05.803147,-183.0
2023-08-09 18:14:05.810838,-183.0
2023-08-09 18:14:05.818528,-167.0
2023-08-09 18:14:05.826219,-155.0
2023-08-09 18:14:05.833909,-145.0
2023-08-09 18:14:05.841600,-131.0
2023-08-09 18:14:05.849290,-117.0
2023-08-09 18:14:05.856981,-102.0
2023-08-09 18:14:05.864672,-85.0
2023-08-09 18:14:05.872362,-71.0
2023-08-09 18:14:05.880053,-54.0
2023-08-09 18:14:05.887743,-38.0
2023-08-09 18:14:05.895434,-28.0
2023-08-09 18:14:05.903124,-21.0
2023-08-09 18:14:05.910815,-4.0
2023-08-09 18:14:05.918505,14.0
2023-08-09 18:14:05.926196,28.0
2023-08-09 18:14:05.933886,42.0
2023-08-09 18:14:05.941577,54.0
2023-08-09 18:14:05.949268,64.0
2023-08-09 18:14:05.956958,69.0
2023-08-09 18:14:05.964649,69.0
2023-08-09 18:14:05.972339,62.0
2023-08-09 18:14:05.980030,47.0
2023-08-09 18:14:05.987720,23.0
2023-08-09 18:14:05.995411,-7.0
2023-08-09 18:14:06.003101,-47.0
2023-08-09 18:14:06.010792,-85.0
2023-08-09 18:14:06.018482,-117.0
2023-08-09 18:14:06.026173,-145.0
2023-08-09 18:14:06.033864,-169.0
2023-08-09 18:14:06.041554,-183.0
2023-08-09 18:14:06.049245,-191.0
2023-08-09 18:14:06.056935,-191.0
2023-08-09 18:14:06.064626,-191.0
2023-08-09 18:14:06.072316,-191.0
2023-08-09 18:14:06.080007,-191.0
2023-08-09 18:14:06.087697,-183.0
2023-08-09 18:14:06.095388,-174.0
2023-08-09 18:14:06.103078,-167.0
2023-08-09 18:14:06.110769,-162.0
2023-08-09 18:14:06.118459,-160.0
2023-08-09 18:14:06.126150,-157.0
2023-08-09 18:14:06.133841,-152.0
2023-08-09 18:14:06.141531,-148.0
2023-08-09 18:14:06.149222,-145.0
2023-08-09 18:14:06.156912,-145.0
2023-08-09 18:14:06.164603,-143.0
2023-08-09 18:14:06.172293,-140.0
2023-08-09 18:14:06.179984,-140.0
2023-08-09 18:14:06.187674,-138.0
2023-08-09 18:14:06.195365,-133.0
2023-08-09 18:14:06.203055,-131.0
2023-08-09 18:14:06.210746,-133.0
2023-08-09 18:14:06.218437,-133.0
2023-08-09 18:14:06.226127,-128.0
2023-08-09 18:14:06.233818,-126.0
2023-08-09 18:14:06.241508,-126.0
2023-08-09 18:14:06.249199,-124.0
2023-08-09 18:14:06.256889,-124.0
2023-08-09 18:14:06.264580,-124.0
2023-08-09 18:14:06.272270,-121.0
2023-08-09 18:14:06.279961,-117.0
2023-08-09 18:14:06.287651,-114.0
2023-08-09 18:14:06.295342,-112.0
2023-08-09 18:14:06.303033,-109.0
2023-08-09 18:14:06.310723,-107.0
2023-08-09 18:14:06.318414,-102.0
2023-08-09 18:14:06.326104,-100.0
2023-08-09 18:14:06.333795,-95.0
2023-08-09 18:14:06.341485,-97.0
2023-08-09 18:14:06.349176,-97.0
2023-08-09 18:14:06.356866,-93.0
2023-08-09 18:14:06.364557,-90.0
2023-08-09 18:14:06.372247,-90.0
2023-08-09 18:14:06.379938,-88.0
2023-08-09 18:14:06.387628,-85.0
2023-08-09 18:14:06.395319,-83.0
2023-08-09 18:14:06.403010,-85.0
2023-08-09 18:14:06.410700,-83.0
2023-08-09 18:14:06.418391,-78.0
2023-08-09 18:14:06.426081,-76.0
2023-08-09 18:14:06.433772,-74.0
2023-08-09 18:14:06.441462,-76.0
2023-08-09 18:14:06.449153,-74.0
2023-08-09 18:14:06.456843,-71.0
2023-08-09 18:14:06.464534,-69.0
2023-08-09 18:14:06.472224,-69.0
2023-08-09 18:14:06.479915,-66.0
2023-08-09 18:14:06.487606,-69.0
2023-08-09 18:14:06.495296,-71.0
2023-08-09 18:14:06.502987,-71.0
2023-08-09 18:14:06.510677,-71.0
2023-08-09 18:14:06.518368,-69.0
2023-08-09 18:14:06.526058,-76.0
2023-08-09 18:14:06.533749,-81.0
2023-08-09 18:14:06.541439,-66.0
2023-08-09 18:14:06.549130,-45.0
2023-08-09 18:14:06.556820,-33.0
2023-08-09 18:14:06.564511,-31.0
2023-08-09 18:14:06.572202,-31.0
2023-08-09 18:14:06.579892,-45.0
2023-08-09 18:14:06.587583,-69.0
2023-08-09 18:14:06.595273,-78.0
2023-08-09 18:14:06.602964,-76.0
2023-08-09 18:14:06.610654,-74.0
2023-08-09 18:14:06.618345,-76.0
2023-08-09 18:14:06.626035,-74.0
2023-08-09 18:14:06.633726,-71.0
2023-08-09 18:14:06.641416,-69.0
2023-08-09 18:14:06.649107,-81.0
2023-08-09 18:14:06.656797,-71.0
2023-08-09 18:14:06.664488,107.0
2023-08-09 18:14:06.672179,566.0
2023-08-09 18:14:06.679869,1098.0
2023-08-09 18:14:06.687560,1304.0
2023-08-09 18:14:06.695250,1007.0
2023-08-09 18:14:06.702941,444.0
2023-08-09 18:14:06.710631,-16.0
2023-08-09 18:14:06.718322,-176.0
2023-08-09 18:14:06.726012,-148.0
2023-08-09 18:14:06.733703,-171.0
2023-08-09 18:14:06.741393,-234.0
2023-08-09 18:14:06.749084,-226.0
2023-08-09 18:14:06.756775,-210.0
2023-08-09 18:14:06.764465,-214.0
2023-08-09 18:14:06.772156,-205.0
2023-08-09 18:14:06.779846,-188.0
2023-08-09 18:14:06.787537,-176.0
2023-08-09 18:14:06.795227,-164.0
2023-08-09 18:14:06.802918,-150.0
2023-08-09 18:14:06.810608,-138.0
2023-08-09 18:14:06.818299,-126.0
2023-08-09 18:14:06.825989,-107.0
2023-08-09 18:14:06.833680,-93.0
2023-08-09 18:14:06.841371,-81.0
2023-08-09 18:14:06.849061,-66.0
2023-08-09 18:14:06.856752,-47.0
2023-08-09 18:14:06.864442,-28.0
2023-08-09 18:14:06.872133,-7.0
2023-08-09 18:14:06.879823,9.0
2023-08-09 18:14:06.887514,21.0
2023-08-09 18:14:06.895204,33.0
2023-08-09 18:14:06.902895,50.0
2023-08-09 18:14:06.910585,57.0
2023-08-09 18:14:06.918276,57.0
2023-08-09 18:14:06.925966,59.0
2023-08-09 18:14:06.933657,54.0
2023-08-09 18:14:06.941348,35.0
2023-08-09 18:14:06.949038,11.0
2023-08-09 18:14:06.956729,-16.0
2023-08-09 18:14:06.964419,-47.0
2023-08-09 18:14:06.972110,-81.0
2023-08-09 18:14:06.979800,-114.0
2023-08-09 18:14:06.987491,-140.0
2023-08-09 18:14:06.995181,-162.0
2023-08-09 18:14:07.002872,-181.0
2023-08-09 18:14:07.010562,-191.0
2023-08-09 18:14:07.018253,-193.0
2023-08-09 18:14:07.025944,-191.0
2023-08-09 18:14:07.033634,-186.0
2023-08-09 18:14:07.041325,-181.0
2023-08-09 18:14:07.049015,-179.0
2023-08-09 18:14:07.056706,-174.0
2023-08-09 18:14:07.064396,-174.0
2023-08-09 18:14:07.072087,-179.0
2023-08-09 18:14:07.079777,-174.0
2023-08-09 18:14:07.087468,-164.0
2023-08-09 18:14:07.095158,-167.0
2023-08-09 18:14:07.102849,-164.0
2023-08-09 18:14:07.110540,-160.0
2023-08-09 18:14:07.118230,-160.0
2023-08-09 18:14:07.125921,-162.0
2023-08-09 18:14:07.133611,-157.0
2023-08-09 18:14:07.141302,-152.0
2023-08-09 18:14:07.148992,-152.0
2023-08-09 18:14:07.156683,-155.0
2023-08-09 18:14:07.164373,-150.0
2023-08-09 18:14:07.172064,-145.0
2023-08-09 18:14:07.179754,-143.0
2023-08-09 18:14:07.187445,-140.0
2023-08-09 18:14:07.195136,-140.0
2023-08-09 18:14:07.202826,-138.0
2023-08-09 18:14:07.210517,-133.0
2023-08-09 18:14:07.218207,-133.0
2023-08-09 18:14:07.225898,-133.0
2023-08-09 18:14:07.233588,-131.0
2023-08-09 18:14:07.241279,-133.0
2023-08-09 18:14:07.248969,-136.0
2023-08-09 18:14:07.256660,-131.0
2023-08-09 18:14:07.264350,-124.0
2023-08-09 18:14:07.272041,-121.0
2023-08-09 18:14:07.279731,-124.0
2023-08-09 18:14:07.287422,-119.0
2023-08-09 18:14:07.295113,-114.0
2023-08-09 18:14:07.302803,-114.0
2023-08-09 18:14:07.310494,-109.0
2023-08-09 18:14:07.318184,-105.0
2023-08-09 18:14:07.325875,-109.0
2023-08-09 18:14:07.333565,-109.0
2023-08-09 18:14:07.341256,-107.0
2023-08-09 18:14:07.348946,-105.0
2023-08-09 18:14:07.356637,-107.0
2023-08-09 18:14:07.364327,-102.0
2023-08-09 18:14:07.372018,-93.0
2023-08-09 18:14:07.379709,-95.0
2023-08-09 18:14:07.387399,-102.0
2023-08-09 18:14:07.395090,-100.0
2023-08-09 18:14:07.402780,-93.0
2023-08-09 18:14:07.410471,-83.0
2023-08-09 18:14:07.418161,-83.0
2023-08-09 18:14:07.425852,-90.0
2023-08-09 18:14:07.433542,-88.0
2023-08-09 18:14:07.441233,-81.0
2023-08-09 18:14:07.448923,-83.0
2023-08-09 18:14:07.456614,-85.0
2023-08-09 18:14:07.464305,-76.0
2023-08-09 18:14:07.471995,-57.0
2023-08-09 18:14:07.479686,-45.0
2023-08-09 18:14:07.487376,-42.0
2023-08-09 18:14:07.495067,-40.0
2023-08-09 18:14:07.502757,-52.0
2023-08-09 18:14:07.510448,-81.0
2023-08-09 18:14:07.518138,-100.0
2023-08-09 18:14:07.525829,-93.0
2023-08-09 18:14:07.533519,-88.0
2023-08-09 18:14:07.541210,-90.0
2023-08-09 18:14:07.548900,-93.0
2023-08-09 18:14:07.556591,-90.0
2023-08-09 18:14:07.564282,-88.0
2023-08-09 18:14:07.571972,-90.0
2023-08-09 18:14:07.579663,-83.0
2023-08-09 18:14:07.587353,64.0
2023-08-09 18:14:07.595044,506.0
2023-08-09 18:14:07.602734,1086.0
2023-08-09 18:14:07.610425,1359.0
2023-08-09 18:14:07.618115,1053.0
2023-08-09 18:14:07.625806,432.0
2023-08-09 18:14:07.633496,-47.0
2023-08-09 18:14:07.641187,-188.0
2023-08-09 18:14:07.648878,-160.0
2023-08-09 18:14:07.656568,-203.0
2023-08-09 18:14:07.664259,-253.0
2023-08-09 18:14:07.671949,-231.0
2023-08-09 18:14:07.679640,-222.0
2023-08-09 18:14:07.687330,-229.0
2023-08-09 18:14:07.695021,-214.0
2023-08-09 18:14:07.702711,-193.0
2023-08-09 18:14:07.710402,-181.0
2023-08-09 18:14:07.718092,-169.0
2023-08-09 18:14:07.725783,-157.0
2023-08-09 18:14:07.733474,-143.0
2023-08-09 18:14:07.741164,-126.0
2023-08-09 18:14:07.748855,-112.0
2023-08-09 18:14:07.756545,-93.0
2023-08-09 18:14:07.764236,-74.0
2023-08-09 18:14:07.771926,-57.0
2023-08-09 18:14:07.779617,-35.0
2023-08-09 18:14:07.787307,-19.0
2023-08-09 18:14:07.794998,-2.0
2023-08-09 18:14:07.802688,16.0
2023-08-09 18:14:07.810379,38.0
2023-08-09 18:14:07.818069,54.0
2023-08-09 18:14:07.825760,66.0
2023-08-09 18:14:07.833451,71.0
2023-08-09 18:14:07.841141,71.0
2023-08-09 18:14:07.848832,66.0
2023-08-09 18:14:07.856522,54.0
2023-08-09 18:14:07.864213,33.0
2023-08-09 18:14:07.871903,4.0
2023-08-09 18:14:07.879594,-31.0
2023-08-09 18:14:07.887284,-64.0
2023-08-09 18:14:07.894975,-100.0
2023-08-09 18:14:07.902665,-133.0
2023-08-09 18:14:07.910356,-157.0
2023-08-09 18:14:07.918047,-174.0
2023-08-09 18:14:07.925737,-193.0
2023-08-09 18:14:07.933428,-200.0
2023-08-09 18:14:07.941118,-198.0
2023-08-09 18:14:07.948809,-198.0
2023-08-09 18:14:07.956499,-195.0
2023-08-09 18:14:07.964190,-191.0
2023-08-09 18:14:07.971880,-188.0
2023-08-09 18:14:07.979571,-183.0
2023-08-09 18:14:07.987261,-176.0
2023-08-09 18:14:07.994952,-167.0
2023-08-09 18:14:08.002643,-162.0
2023-08-09 18:14:08.010333,-162.0
2023-08-09 18:14:08.018024,-164.0
2023-08-09 18:14:08.025714,-162.0
2023-08-09 18:14:08.033405,-155.0
2023-08-09 18:14:08.041095,-150.0
2023-08-09 18:14:08.048786,-148.0
2023-08-09 18:14:08.056476,-150.0
2023-08-09 18:14:08.064167,-150.0
2023-08-09 18:14:08.071857,-148.0
2023-08-09 18:14:08.079548,-145.0
2023-08-09 18:14:08.087238,-145.0
2023-08-09 18:14:08.094929,-143.0
2023-08-09 18:14:08.102620,-140.0
2023-08-09 18:14:08.110310,-143.0
2023-08-09 18:14:08.118001,-140.0
2023-08-09 18:14:08.125691,-136.0
2023-08-09 18:14:08.133382,-136.0
2023-08-09 18:14:08.141072,-133.0
2023-08-09 18:14:08.148763,-128.0
2023-08-09 18:14:08.156453,-128.0
2023-08-09 18:14:08.164144,-126.0
2023-08-09 18:14:08.171834,-124.0
2023-08-09 18:14:08.179525,-119.0
2023-08-09 18:14:08.187216,-114.0
2023-08-09 18:14:08.194906,-112.0
2023-08-09 18:14:08.202597,-112.0
2023-08-09 18:14:08.210287,-107.0
2023-08-09 18:14:08.217978,-107.0
2023-08-09 18:14:08.225668,-107.0
2023-08-09 18:14:08.233359,-107.0
2023-08-09 18:14:08.241049,-107.0
2023-08-09 18:14:08.248740,-105.0
2023-08-09 18:14:08.256430,-102.0
2023-08-09 18:14:08.264121,-100.0
2023-08-09 18:14:08.271812,-95.0
2023-08-09 18:14:08.279502,-88.0
2023-08-09 18:14:08.287193,-83.0
2023-08-09 18:14:08.294883,-69.0
2023-08-09 18:14:08.302574,-54.0
2023-08-09 18:14:08.310264,-54.0
2023-08-09 18:14:08.317955,-71.0
2023-08-09 18:14:08.325645,-93.0
2023-08-09 18:14:08.333336,-100.0
2023-08-09 18:14:08.341026,-97.0
2023-08-09 18:14:08.348717,-95.0
2023-08-09 18:14:08.356408,-93.0
2023-08-09 18:14:08.364098,-90.0
2023-08-09 18:14:08.371789,-85.0
2023-08-09 18:14:08.379479,-81.0
2023-08-09 18:14:08.387170,-93.0
2023-08-09 18:14:08.394860,-78.0
2023-08-09 18:14:08.402551,133.0
2023-08-09 18:14:08.410241,644.0
2023-08-09 18:14:08.417932,1196.0
2023-08-09 18:14:08.425622,1361.0
2023-08-09 18:14:08.433313,984.0
2023-08-09 18:14:08.441003,363.0
2023-08-09 18:14:08.448694,-76.0
2023-08-09 18:14:08.456385,-167.0
2023-08-09 18:14:08.464075,-131.0
2023-08-09 18:14:08.471766,-186.0
2023-08-09 18:14:08.479456,-229.0
2023-08-09 18:14:08.487147,-203.0
2023-08-09 18:14:08.494837,-193.0
2023-08-09 18:14:08.502528,-195.0
2023-08-09 18:14:08.510218,-181.0
2023-08-09 18:14:08.517909,-174.0
2023-08-09 18:14:08.525599,-169.0
2023-08-09 18:14:08.533290,-150.0
2023-08-09 18:14:08.540981,-133.0
2023-08-09 18:14:08.548671,-121.0
2023-08-09 18:14:08.556362,-107.0
2023-08-09 18:14:08.564052,-88.0
2023-08-09 18:14:08.571743,-69.0
2023-08-09 18:14:08.579433,-52.0
2023-08-09 18:14:08.587124,-35.0
2023-08-09 18:14:08.594814,-16.0
2023-08-09 18:14:08.602505,2.0
2023-08-09 18:14:08.610195,21.0
2023-08-09 18:14:08.617886,42.0
2023-08-09 18:14:08.625577,59.0
2023-08-09 18:14:08.633267,71.0
2023-08-09 18:14:08.640958,81.0
2023-08-09 18:14:08.648648,83.0
2023-08-09 18:14:08.656339,76.0
2023-08-09 18:14:08.664029,64.0
2023-08-09 18:14:08.671720,45.0
2023-08-09 18:14:08.679410,21.0
2023-08-09 18:14:08.687101,-9.0
2023-08-09 18:14:08.694791,-45.0
2023-08-09 18:14:08.702482,-81.0
2023-08-09 18:14:08.710172,-114.0
2023-08-09 18:14:08.717863,-145.0
2023-08-09 18:14:08.725554,-171.0
2023-08-09 18:14:08.733244,-193.0
2023-08-09 18:14:08.740935,-205.0
2023-08-09 18:14:08.748625,-207.0
2023-08-09 18:14:08.756316,-203.0
2023-08-09 18:14:08.764006,-198.0
2023-08-09 18:14:08.771697,-193.0
2023-08-09 18:14:08.779387,-186.0
2023-08-09 18:14:08.787078,-181.0
2023-08-09 18:14:08.794768,-171.0
2023-08-09 18:14:08.802459,-164.0
2023-08-09 18:14:08.810150,-160.0
2023-08-09 18:14:08.817840,-152.0
2023-08-09 18:14:08.825531,-150.0
2023-08-09 18:14:08.833221,-148.0
2023-08-09 18:14:08.840912,-143.0
2023-08-09 18:14:08.848602,-138.0
2023-08-09 18:14:08.856293,-133.0
2023-08-09 18:14:08.863983,-133.0
2023-08-09 18:14:08.871674,-136.0
2023-08-09 18:14:08.879364,-138.0
2023-08-09 18:14:08.887055,-133.0
2023-08-09 18:14:08.894746,-131.0
2023-08-09 18:14:08.902436,-133.0
2023-08-09 18:14:08.910127,-131.0
2023-08-09 18:14:08.917817,-126.0
2023-08-09 18:14:08.925508,-124.0
2023-08-09 18:14:08.933198,-124.0
2023-08-09 18:14:08.940889,-121.0
2023-08-09 18:14:08.948579,-119.0
2023-08-09 18:14:08.956270,-117.0
2023-08-09 18:14:08.963960,-117.0
2023-08-09 18:14:08.971651,-117.0
2023-08-09 18:14:08.979341,-112.0
2023-08-09 18:14:08.987032,-109.0
2023-08-09 18:14:08.994723,-107.0
2023-08-09 18:14:09.002413,-107.0
2023-08-09 18:14:09.010104,-105.0
2023-08-09 18:14:09.017794,-102.0
2023-08-09 18:14:09.025485,-102.0
2023-08-09 18:14:09.033175,-107.0
2023-08-09 18:14:09.040866,-102.0
2023-08-09 18:14:09.048556,-97.0
2023-08-09 18:14:09.056247,-100.0
2023-08-09 18:14:09.063937,-97.0
2023-08-09 18:14:09.071628,-83.0
2023-08-09 18:14:09.079319,-64.0
2023-08-09 18:14:09.087009,-50.0
2023-08-09 18:14:09.094700,-42.0
2023-08-09 18:14:09.102390,-54.0
2023-08-09 18:14:09.110081,-76.0
2023-08-09 18:14:09.117771,-85.0
2023-08-09 18:14:09.125462,-85.0
2023-08-09 18:14:09.133152,-85.0
2023-08-09 18:14:09.140843,-83.0
2023-08-09 18:14:09.148533,-81.0
2023-08-09 18:14:09.156224,-83.0
2023-08-09 18:14:09.163915,-78.0
2023-08-09 18:14:09.171605,-78.0
2023-08-09 18:14:09.179296,-93.0
2023-08-09 18:14:09.186986,-26.0
2023-08-09 18:14:09.194677,315.0
2023-08-09 18:14:09.202367,890.0
2023-08-09 18:14:09.210058,1342.0
2023-08-09 18:14:09.217748,1320.0
2023-08-09 18:14:09.225439,826.0
2023-08-09 18:14:09.233129,193.0
2023-08-09 18:14:09.240820,-157.0
2023-08-09 18:14:09.248511,-157.0
2023-08-09 18:14:09.256201,-143.0
2023-08-09 18:14:09.263892,-217.0
2023-08-09 18:14:09.271582,-231.0
2023-08-09 18:14:09.279273,-214.0
2023-08-09 18:14:09.286963,-217.0
2023-08-09 18:14:09.294654,-207.0
2023-08-09 18:14:09.302344,-191.0
2023-08-09 18:14:09.310035,-179.0
2023-08-09 18:14:09.317725,-162.0
2023-08-09 18:14:09.325416,-140.0
2023-08-09 18:14:09.333106,-128.0
2023-08-09 18:14:09.340797,-114.0
2023-08-09 18:14:09.348488,-97.0
2023-08-09 18:14:09.356178,-83.0
2023-08-09 18:14:09.363869,-66.0
2023-08-09 18:14:09.371559,-45.0
2023-08-09 18:14:09.379250,-23.0
2023-08-09 18:14:09.386940,-7.0
2023-08-09 18:14:09.394631,11.0
2023-08-09 18:14:09.402321,31.0
2023-08-09 18:14:09.410012,45.0
2023-08-09 18:14:09.417702,59.0
2023-08-09 18:14:09.425393,69.0
2023-08-09 18:14:09.433084,76.0
2023-08-09 18:14:09.440774,78.0
2023-08-09 18:14:09.448465,66.0
2023-08-09 18:14:09.456155,47.0
2023-08-09 18:14:09.463846,26.0
2023-08-09 18:14:09.471536,-2.0
2023-08-09 18:14:09.479227,-40.0
2023-08-09 18:14:09.486917,-78.0
2023-08-09 18:14:09.494608,-119.0
2023-08-09 18:14:09.502298,-155.0
2023-08-09 18:14:09.509989,-183.0
2023-08-09 18:14:09.517680,-203.0
2023-08-09 18:14:09.525370,-219.0
2023-08-09 18:14:09.533061,-231.0
2023-08-09 18:14:09.540751,-234.0
2023-08-09 18:14:09.548442,-226.0
2023-08-09 18:14:09.556132,-219.0
2023-08-09 18:14:09.563823,-214.0
2023-08-09 18:14:09.571513,-203.0
2023-08-09 18:14:09.579204,-195.0
2023-08-09 18:14:09.586894,-198.0
2023-08-09 18:14:09.594585,-198.0
2023-08-09 18:14:09.602275,-186.0
2023-08-09 18:14:09.609966,-179.0
2023-08-09 18:14:09.617657,-174.0
2023-08-09 18:14:09.625347,-167.0
2023-08-09 18:14:09.633038,-167.0
2023-08-09 18:14:09.640728,-164.0
2023-08-09 18:14:09.648419,-160.0
2023-08-09 18:14:09.656109,-155.0
2023-08-09 18:14:09.663800,-155.0
2023-08-09 18:14:09.671490,-155.0
2023-08-09 18:14:09.679181,-155.0
2023-08-09 18:14:09.686871,-152.0
2023-08-09 18:14:09.694562,-152.0
2023-08-09 18:14:09.702253,-155.0
2023-08-09 18:14:09.709943,-152.0
2023-08-09 18:14:09.717634,-150.0
2023-08-09 18:14:09.725324,-148.0
2023-08-09 18:14:09.733015,-145.0
2023-08-09 18:14:09.740705,-140.0
2023-08-09 18:14:09.748396,-138.0
2023-08-09 18:14:09.756086,-136.0
2023-08-09 18:14:09.763777,-133.0
2023-08-09 18:14:09.771467,-133.0
2023-08-09 18:14:09.779158,-128.0
2023-08-09 18:14:09.786849,-124.0
2023-08-09 18:14:09.794539,-124.0
2023-08-09 18:14:09.802230,-121.0
2023-08-09 18:14:09.809920,-119.0
2023-08-09 18:14:09.817611,-119.0
2023-08-09 18:14:09.825301,-114.0
2023-08-09 18:14:09.832992,-102.0
2023-08-09 18:14:09.840682,-83.0
2023-08-09 18:14:09.848373,-66.0
2023-08-09 18:14:09.856063,-59.0
2023-08-09 18:14:09.863754,-64.0
2023-08-09 18:14:09.871444,-81.0
2023-08-09 18:14:09.879135,-100.0
2023-08-09 18:14:09.886826,-105.0
2023-08-09 18:14:09.894516,-105.0
2023-08-09 18:14:09.902207,-112.0
2023-08-09 18:14:09.909897,-114.0
2023-08-09 18:14:09.917588,-109.0
2023-08-09 18:14:09.925278,-102.0
2023-08-09 18:14:09.932969,-100.0
2023-08-09 18:14:09.940659,-112.0
2023-08-09 18:14:09.948350,-78.0
2023-08-09 18:14:09.956040,186.0
2023-08-09 18:14:09.963731,747.0
2023-08-09 18:14:09.971422,1282.0
2023-08-09 18:14:09.979112,1349.0
2023-08-09 18:14:09.986803,886.0
2023-08-09 18:14:09.994493,243.0
2023-08-09 18:14:10.002184,-140.0
2023-08-09 18:14:10.009874,-164.0
2023-08-09 18:14:10.017565,-133.0
2023-08-09 18:14:10.025255,-205.0
2023-08-09 18:14:10.032946,-231.0
2023-08-09 18:14:10.040636,-205.0
2023-08-09 18:14:10.048327,-205.0
2023-08-09 18:14:10.056018,-200.0
2023-08-09 18:14:10.063708,-179.0
2023-08-09 18:14:10.071399,-164.0
2023-08-09 18:14:10.079089,-152.0
2023-08-09 18:14:10.086780,-138.0
2023-08-09 18:14:10.094470,-121.0
2023-08-09 18:14:10.102161,-105.0
2023-08-09 18:14:10.109851,-85.0
2023-08-09 18:14:10.117542,-66.0
2023-08-09 18:14:10.125232,-47.0
2023-08-09 18:14:10.132923,-31.0
2023-08-09 18:14:10.140613,-9.0
2023-08-09 18:14:10.148304,11.0
2023-08-09 18:14:10.155995,28.0
2023-08-09 18:14:10.163685,47.0
2023-08-09 18:14:10.171376,69.0
2023-08-09 18:14:10.179066,81.0
2023-08-09 18:14:10.186757,90.0
2023-08-09 18:14:10.194447,95.0
2023-08-09 18:14:10.202138,88.0
2023-08-09 18:14:10.209828,76.0
2023-08-09 18:14:10.217519,62.0
2023-08-09 18:14:10.225209,38.0
2023-08-09 18:14:10.232900,7.0
2023-08-09 18:14:10.240591,-26.0
2023-08-09 18:14:10.248281,-62.0
2023-08-09 18:14:10.255972,-97.0
2023-08-09 18:14:10.263662,-128.0
2023-08-09 18:14:10.271353,-152.0
2023-08-09 18:14:10.279043,-171.0
2023-08-09 18:14:10.286734,-179.0
2023-08-09 18:14:10.294424,-183.0
2023-08-09 18:14:10.302115,-186.0
2023-08-09 18:14:10.309805,-188.0
2023-08-09 18:14:10.317496,-181.0
2023-08-09 18:14:10.325187,-174.0
2023-08-09 18:14:10.332877,-169.0
2023-08-09 18:14:10.340568,-162.0
2023-08-09 18:14:10.348258,-155.0
2023-08-09 18:14:10.355949,-148.0
2023-08-09 18:14:10.363639,-143.0
2023-08-09 18:14:10.371330,-140.0
2023-08-09 18:14:10.379020,-138.0
2023-08-09 18:14:10.386711,-136.0
2023-08-09 18:14:10.394401,-136.0
2023-08-09 18:14:10.402092,-136.0
2023-08-09 18:14:10.409783,-136.0
2023-08-09 18:14:10.417473,-136.0
2023-08-09 18:14:10.425164,-133.0
2023-08-09 18:14:10.432854,-136.0
2023-08-09 18:14:10.440545,-138.0
2023-08-09 18:14:10.448235,-138.0
2023-08-09 18:14:10.455926,-136.0
2023-08-09 18:14:10.463616,-136.0
2023-08-09 18:14:10.471307,-136.0
2023-08-09 18:14:10.478997,-136.0
2023-08-09 18:14:10.486688,-140.0
2023-08-09 18:14:10.494378,-145.0
2023-08-09 18:14:10.502069,-143.0
2023-08-09 18:14:10.509760,-138.0
2023-08-09 18:14:10.517450,-136.0
2023-08-09 18:14:10.525141,-131.0
2023-08-09 18:14:10.532831,-128.0
2023-08-09 18:14:10.540522,-131.0
2023-08-09 18:14:10.548212,-133.0
2023-08-09 18:14:10.555903,-133.0
2023-08-09 18:14:10.563593,-126.0
2023-08-09 18:14:10.571284,-124.0
2023-08-09 18:14:10.578974,-124.0
2023-08-09 18:14:10.586665,-121.0
2023-08-09 18:14:10.594356,-117.0
2023-08-09 18:14:10.602046,-117.0
2023-08-09 18:14:10.609737,-117.0
2023-08-09 18:14:10.617427,-114.0
2023-08-09 18:14:10.625118,-112.0
2023-08-09 18:14:10.632808,-97.0
2023-08-09 18:14:10.640499,-78.0
2023-08-09 18:14:10.648189,-66.0
2023-08-09 18:14:10.655880,-59.0
2023-08-09 18:14:10.663570,-59.0
2023-08-09 18:14:10.671261,-81.0
2023-08-09 18:14:10.678952,-100.0
2023-08-09 18:14:10.686642,-105.0
2023-08-09 18:14:10.694333,-107.0
2023-08-09 18:14:10.702023,-107.0
2023-08-09 18:14:10.709714,-105.0
2023-08-09 18:14:10.717404,-100.0
2023-08-09 18:14:10.725095,-95.0
2023-08-09 18:14:10.732785,-93.0
2023-08-09 18:14:10.740476,-107.0
2023-08-09 18:14:10.748166,-59.0
2023-08-09 18:14:10.755857,226.0
2023-08-09 18:14:10.763547,771.0
2023-08-09 18:14:10.771238,1268.0
2023-08-09 18:14:10.778929,1339.0
2023-08-09 18:14:10.786619,912.0
2023-08-09 18:14:10.794310,281.0
2023-08-09 18:14:10.802000,-131.0
2023-08-09 18:14:10.809691,-183.0
2023-08-09 18:14:10.817381,-148.0
2023-08-09 18:14:10.825072,-200.0
2023-08-09 18:14:10.832762,-231.0
2023-08-09 18:14:10.840453,-207.0
2023-08-09 18:14:10.848143,-203.0
2023-08-09 18:14:10.855834,-200.0
2023-08-09 18:14:10.863525,-181.0
2023-08-09 18:14:10.871215,-164.0
2023-08-09 18:14:10.878906,-155.0
2023-08-09 18:14:10.886596,-140.0
2023-08-09 18:14:10.894287,-126.0
2023-08-09 18:14:10.901977,-109.0
2023-08-09 18:14:10.909668,-90.0
2023-08-09 18:14:10.917358,-71.0
2023-08-09 18:14:10.925049,-62.0
2023-08-09 18:14:10.932739,-50.0
2023-08-09 18:14:10.940430,-31.0
2023-08-09 18:14:10.948121,-7.0
2023-08-09 18:14:10.955811,14.0
2023-08-09 18:14:10.963502,28.0
2023-08-09 18:14:10.971192,42.0
2023-08-09 18:14:10.978883,54.0
2023-08-09 18:14:10.986573,59.0
2023-08-09 18:14:10.994264,66.0
2023-08-09 18:14:11.001954,74.0
2023-08-09 18:14:11.009645,66.0
2023-08-09 18:14:11.017335,47.0
2023-08-09 18:14:11.025026,26.0
2023-08-09 18:14:11.032716,-2.0
2023-08-09 18:14:11.040407,-33.0
2023-08-09 18:14:11.048098,-69.0
2023-08-09 18:14:11.055788,-112.0
2023-08-09 18:14:11.063479,-148.0
2023-08-09 18:14:11.071169,-167.0
2023-08-09 18:14:11.078860,-181.0
2023-08-09 18:14:11.086550,-195.0
2023-08-09 18:14:11.094241,-200.0
2023-08-09 18:14:11.101931,-203.0
2023-08-09 18:14:11.109622,-198.0
2023-08-09 18:14:11.117312,-191.0
2023-08-09 18:14:11.125003,-183.0
2023-08-09 18:14:11.132694,-181.0
2023-08-09 18:14:11.140384,-174.0
2023-08-09 18:14:11.148075,-164.0
2023-08-09 18:14:11.155765,-162.0
2023-08-09 18:14:11.163456,-160.0
2023-08-09 18:14:11.171146,-152.0
2023-08-09 18:14:11.178837,-152.0
2023-08-09 18:14:11.186527,-152.0
2023-08-09 18:14:11.194218,-148.0
2023-08-09 18:14:11.201908,-143.0
2023-08-09 18:14:11.209599,-143.0
2023-08-09 18:14:11.217290,-143.0
2023-08-09 18:14:11.224980,-140.0
2023-08-09 18:14:11.232671,-143.0
2023-08-09 18:14:11.240361,-140.0
2023-08-09 18:14:11.248052,-143.0
2023-08-09 18:14:11.255742,-140.0
2023-08-09 18:14:11.263433,-138.0
2023-08-09 18:14:11.271123,-136.0
2023-08-09 18:14:11.278814,-133.0
2023-08-09 18:14:11.286504,-133.0
2023-08-09 18:14:11.294195,-131.0
2023-08-09 18:14:11.301885,-133.0
2023-08-09 18:14:11.309576,-131.0
2023-08-09 18:14:11.317267,-128.0
2023-08-09 18:14:11.324957,-128.0
2023-08-09 18:14:11.332648,-128.0
2023-08-09 18:14:11.340338,-131.0
2023-08-09 18:14:11.348029,-131.0
2023-08-09 18:14:11.355719,-124.0
2023-08-09 18:14:11.363410,-119.0
2023-08-09 18:14:11.371100,-117.0
2023-08-09 18:14:11.378791,-114.0
2023-08-09 18:14:11.386481,-112.0
2023-08-09 18:14:11.394172,-112.0
2023-08-09 18:14:11.401863,-109.0
2023-08-09 18:14:11.409553,-105.0
2023-08-09 18:14:11.417244,-102.0
2023-08-09 18:14:11.424934,-105.0
2023-08-09 18:14:11.432625,-109.0
2023-08-09 18:14:11.440315,-107.0
2023-08-09 18:14:11.448006,-102.0
2023-08-09 18:14:11.455696,-100.0
2023-08-09 18:14:11.463387,-97.0
2023-08-09 18:14:11.471077,-97.0
2023-08-09 18:14:11.478768,-97.0
2023-08-09 18:14:11.486459,-95.0
2023-08-09 18:14:11.494149,-93.0
2023-08-09 18:14:11.501840,-90.0
2023-08-09 18:14:11.509530,-88.0
2023-08-09 18:14:11.517221,-90.0
2023-08-09 18:14:11.524911,-93.0
2023-08-09 18:14:11.532602,-76.0
2023-08-09 18:14:11.540292,-52.0
2023-08-09 18:14:11.547983,-45.0
2023-08-09 18:14:11.555673,-50.0
2023-08-09 18:14:11.563364,-62.0
2023-08-09 18:14:11.571055,-85.0
2023-08-09 18:14:11.578745,-97.0
2023-08-09 18:14:11.586436,-97.0
2023-08-09 18:14:11.594126,-95.0
2023-08-09 18:14:11.601817,-95.0
2023-08-09 18:14:11.609507,-93.0
2023-08-09 18:14:11.617198,-93.0
2023-08-09 18:14:11.624888,-90.0
2023-08-09 18:14:11.632579,-85.0
2023-08-09 18:14:11.640269,-90.0
2023-08-09 18:14:11.647960,-9.0
2023-08-09 18:14:11.655650,324.0
2023-08-09 18:14:11.663341,864.0
2023-08-09 18:14:11.671032,1265.0
2023-08-09 18:14:11.678722,1189.0
2023-08-09 18:14:11.686413,695.0
2023-08-09 18:14:11.694103,145.0
2023-08-09 18:14:11.701794,-148.0
2023-08-09 18:14:11.709484,-162.0
2023-08-09 18:14:11.717175,-150.0
2023-08-09 18:14:11.724865,-207.0
2023-08-09 18:14:11.732556,-219.0
2023-08-09 18:14:11.740246,-198.0
2023-08-09 18:14:11.747937,-200.0
2023-08-09 18:14:11.755628,-198.0
2023-08-09 18:14:11.763318,-176.0
2023-08-09 18:14:11.771009,-160.0
2023-08-09 18:14:11.778699,-152.0
2023-08-09 18:14:11.786390,-136.0
2023-08-09 18:14:11.794080,-121.0
2023-08-09 18:14:11.801771,-107.0
2023-08-09 18:14:11.809461,-90.0
2023-08-09 18:14:11.817152,-76.0
2023-08-09 18:14:11.824842,-59.0
2023-08-09 18:14:11.832533,-42.0
2023-08-09 18:14:11.840224,-26.0
2023-08-09 18:14:11.847914,-7.0
2023-08-09 18:14:11.855605,11.0
2023-08-09 18:14:11.863295,28.0
2023-08-09 18:14:11.870986,45.0
2023-08-09 18:14:11.878676,62.0
2023-08-09 18:14:11.886367,71.0
2023-08-09 18:14:11.894057,78.0
2023-08-09 18:14:11.901748,83.0
2023-08-09 18:14:11.909438,78.0
2023-08-09 18:14:11.917129,64.0
2023-08-09 18:14:11.924819,45.0
2023-08-09 18:14:11.932510,21.0
2023-08-09 18:14:11.940201,-4.0
2023-08-09 18:14:11.947891,-38.0
2023-08-09 18:14:11.955582,-71.0
2023-08-09 18:14:11.963272,-97.0
2023-08-09 18:14:11.970963,-121.0
2023-08-09 18:14:11.978653,-143.0
2023-08-09 18:14:11.986344,-152.0
2023-08-09 18:14:11.994034,-160.0
2023-08-09 18:14:12.001725,-160.0
2023-08-09 18:14:12.009415,-160.0
2023-08-09 18:14:12.017106,-157.0
2023-08-09 18:14:12.024797,-157.0
2023-08-09 18:14:12.032487,-155.0
2023-08-09 18:14:12.040178,-150.0
2023-08-09 18:14:12.047868,-143.0
2023-08-09 18:14:12.055559,-138.0
2023-08-09 18:14:12.063249,-140.0
2023-08-09 18:14:12.070940,-143.0
2023-08-09 18:14:12.078630,-140.0
2023-08-09 18:14:12.086321,-136.0
2023-08-09 18:14:12.094011,-133.0
2023-08-09 18:14:12.101702,-136.0
2023-08-09 18:14:12.109393,-140.0
2023-08-09 18:14:12.117083,-145.0
2023-08-09 18:14:12.124774,-143.0
2023-08-09 18:14:12.132464,-143.0
2023-08-09 18:14:12.140155,-145.0
2023-08-09 18:14:12.147845,-148.0
2023-08-09 18:14:12.155536,-148.0
2023-08-09 18:14:12.163226,-150.0
2023-08-09 18:14:12.170917,-152.0
2023-08-09 18:14:12.178607,-148.0
2023-08-09 18:14:12.186298,-148.0
2023-08-09 18:14:12.193988,-148.0
2023-08-09 18:14:12.201679,-145.0
2023-08-09 18:14:12.209370,-140.0
2023-08-09 18:14:12.217060,-140.0
2023-08-09 18:14:12.224751,-138.0
2023-08-09 18:14:12.232441,-133.0
2023-08-09 18:14:12.240132,-131.0
2023-08-09 18:14:12.247822,-131.0
2023-08-09 18:14:12.255513,-128.0
2023-08-09 18:14:12.263203,-126.0
2023-08-09 18:14:12.270894,-124.0
2023-08-09 18:14:12.278584,-119.0
2023-08-09 18:14:12.286275,-117.0
2023-08-09 18:14:12.293966,-114.0
2023-08-09 18:14:12.301656,-112.0
2023-08-09 18:14:12.309347,-112.0
2023-08-09 18:14:12.317037,-109.0
2023-08-09 18:14:12.324728,-107.0
2023-08-09 18:14:12.332418,-107.0
2023-08-09 18:14:12.340109,-107.0
2023-08-09 18:14:12.347799,-105.0
2023-08-09 18:14:12.355490,-102.0
2023-08-09 18:14:12.363180,-100.0
2023-08-09 18:14:12.370871,-95.0
2023-08-09 18:14:12.378562,-97.0
2023-08-09 18:14:12.386252,-97.0
2023-08-09 18:14:12.393943,-93.0
2023-08-09 18:14:12.401633,-93.0
2023-08-09 18:14:12.409324,-95.0
2023-08-09 18:14:12.417014,-95.0
2023-08-09 18:14:12.424705,-93.0
2023-08-09 18:14:12.432395,-88.0
2023-08-09 18:14:12.440086,-88.0
2023-08-09 18:14:12.447776,-88.0
2023-08-09 18:14:12.455467,-85.0
2023-08-09 18:14:12.463158,-83.0
2023-08-09 18:14:12.470848,-76.0
2023-08-09 18:14:12.478539,-64.0
2023-08-09 18:14:12.486229,-47.0
2023-08-09 18:14:12.493920,-38.0
2023-08-09 18:14:12.501610,-35.0
2023-08-09 18:14:12.509301,-42.0
2023-08-09 18:14:12.516991,-64.0
2023-08-09 18:14:12.524682,-81.0
2023-08-09 18:14:12.532372,-83.0
2023-08-09 18:14:12.540063,-85.0
2023-08-09 18:14:12.547753,-85.0
2023-08-09 18:14:12.555444,-85.0
2023-08-09 18:14:12.563135,-85.0
2023-08-09 18:14:12.570825,-85.0
2023-08-09 18:14:12.578516,-90.0
2023-08-09 18:14:12.586206,-95.0
2023-08-09 18:14:12.593897,-26.0
2023-08-09 18:14:12.601587,289.0
2023-08-09 18:14:12.609278,850.0
2023-08-09 18:14:12.616968,1292.0
2023-08-09 18:14:12.624659,1213.0
2023-08-09 18:14:12.632349,678.0
2023-08-09 18:14:12.640040,117.0
2023-08-09 18:14:12.647731,-152.0
2023-08-09 18:14:12.655421,-171.0
2023-08-09 18:14:12.663112,-174.0
2023-08-09 18:14:12.670802,-224.0
2023-08-09 18:14:12.678493,-234.0
2023-08-09 18:14:12.686183,-222.0
2023-08-09 18:14:12.693874,-222.0
2023-08-09 18:14:12.701564,-212.0
2023-08-09 18:14:12.709255,-191.0
2023-08-09 18:14:12.716945,-179.0
2023-08-09 18:14:12.724636,-169.0
2023-08-09 18:14:12.732327,-150.0
2023-08-09 18:14:12.740017,-138.0
2023-08-09 18:14:12.747708,-126.0
2023-08-09 18:14:12.755398,-105.0
2023-08-09 18:14:12.763089,-88.0
2023-08-09 18:14:12.770779,-78.0
2023-08-09 18:14:12.778470,-57.0
2023-08-09 18:14:12.786160,-35.0
2023-08-09 18:14:12.793851,-21.0
2023-08-09 18:14:12.801541,0.0
2023-08-09 18:14:12.809232,21.0
2023-08-09 18:14:12.816922,38.0
2023-08-09 18:14:12.824613,50.0
2023-08-09 18:14:12.832304,62.0
2023-08-09 18:14:12.839994,74.0
2023-08-09 18:14:12.847685,76.0
2023-08-09 18:14:12.855375,71.0
2023-08-09 18:14:12.863066,59.0
2023-08-09 18:14:12.870756,42.0
2023-08-09 18:14:12.878447,23.0
2023-08-09 18:14:12.886137,-7.0
2023-08-09 18:14:12.893828,-42.0
2023-08-09 18:14:12.901518,-83.0
2023-08-09 18:14:12.909209,-121.0
2023-08-09 18:14:12.916900,-152.0
2023-08-09 18:14:12.924590,-171.0
2023-08-09 18:14:12.932281,-191.0
2023-08-09 18:14:12.939971,-203.0
2023-08-09 18:14:12.947662,-207.0
2023-08-09 18:14:12.955352,-210.0
2023-08-09 18:14:12.963043,-205.0
2023-08-09 18:14:12.970733,-198.0
2023-08-09 18:14:12.978424,-191.0
2023-08-09 18:14:12.986114,-183.0
2023-08-09 18:14:12.993805,-176.0
2023-08-09 18:14:13.001496,-174.0
2023-08-09 18:14:13.009186,-174.0
2023-08-09 18:14:13.016877,-169.0
2023-08-09 18:14:13.024567,-164.0
2023-08-09 18:14:13.032258,-160.0
2023-08-09 18:14:13.039948,-155.0
2023-08-09 18:14:13.047639,-155.0
2023-08-09 18:14:13.055329,-155.0
2023-08-09 18:14:13.063020,-155.0
2023-08-09 18:14:13.070710,-152.0
2023-08-09 18:14:13.078401,-157.0
2023-08-09 18:14:13.086091,-160.0
2023-08-09 18:14:13.093782,-157.0
2023-08-09 18:14:13.101473,-157.0
2023-08-09 18:14:13.109163,-155.0
2023-08-09 18:14:13.116854,-152.0
2023-08-09 18:14:13.124544,-148.0
2023-08-09 18:14:13.132235,-145.0
2023-08-09 18:14:13.139925,-145.0
2023-08-09 18:14:13.147616,-145.0
2023-08-09 18:14:13.155306,-148.0
2023-08-09 18:14:13.162997,-143.0
2023-08-09 18:14:13.170687,-138.0
2023-08-09 18:14:13.178378,-136.0
2023-08-09 18:14:13.186069,-133.0
2023-08-09 18:14:13.193759,-133.0
2023-08-09 18:14:13.201450,-128.0
2023-08-09 18:14:13.209140,-124.0
2023-08-09 18:14:13.216831,-121.0
2023-08-09 18:14:13.224521,-124.0
2023-08-09 18:14:13.232212,-128.0
2023-08-09 18:14:13.239902,-131.0
2023-08-09 18:14:13.247593,-126.0
2023-08-09 18:14:13.255283,-119.0
2023-08-09 18:14:13.262974,-117.0
2023-08-09 18:14:13.270665,-114.0
2023-08-09 18:14:13.278355,-114.0
2023-08-09 18:14:13.286046,-109.0
2023-08-09 18:14:13.293736,-105.0
2023-08-09 18:14:13.301427,-102.0
2023-08-09 18:14:13.309117,-97.0
2023-08-09 18:14:13.316808,-97.0
2023-08-09 18:14:13.324498,-97.0
2023-08-09 18:14:13.332189,-88.0
2023-08-09 18:14:13.339879,-71.0
2023-08-09 18:14:13.347570,-54.0
2023-08-09 18:14:13.355260,-45.0
2023-08-09 18:14:13.362951,-40.0
2023-08-09 18:14:13.370642,-50.0
2023-08-09 18:14:13.378332,-71.0
2023-08-09 18:14:13.386023,-88.0
2023-08-09 18:14:13.393713,-88.0
2023-08-09 18:14:13.401404,-88.0
2023-08-09 18:14:13.409094,-90.0
2023-08-09 18:14:13.416785,-88.0
2023-08-09 18:14:13.424475,-83.0
2023-08-09 18:14:13.432166,-78.0
2023-08-09 18:14:13.439856,-78.0
2023-08-09 18:14:13.447547,-88.0
2023-08-09 18:14:13.455238,-31.0
2023-08-09 18:14:13.462928,281.0
2023-08-09 18:14:13.470619,857.0
2023-08-09 18:14:13.478309,1325.0
2023-08-09 18:14:13.486000,1275.0
2023-08-09 18:14:13.493690,759.0
2023-08-09 18:14:13.501381,179.0
2023-08-09 18:14:13.509071,-126.0
2023-08-09 18:14:13.516762,-143.0
2023-08-09 18:14:13.524452,-128.0
2023-08-09 18:14:13.532143,-188.0
2023-08-09 18:14:13.539834,-200.0
2023-08-09 18:14:13.547524,-181.0
2023-08-09 18:14:13.555215,-183.0
2023-08-09 18:14:13.562905,-176.0
2023-08-09 18:14:13.570596,-155.0
2023-08-09 18:14:13.578286,-145.0
2023-08-09 18:14:13.585977,-140.0
2023-08-09 18:14:13.593667,-128.0
2023-08-09 18:14:13.601358,-112.0
2023-08-09 18:14:13.609048,-95.0
2023-08-09 18:14:13.616739,-78.0
2023-08-09 18:14:13.624430,-59.0
2023-08-09 18:14:13.632120,-42.0
2023-08-09 18:14:13.639811,-26.0
2023-08-09 18:14:13.647501,-11.0
2023-08-09 18:14:13.655192,7.0
2023-08-09 18:14:13.662882,28.0
2023-08-09 18:14:13.670573,47.0
2023-08-09 18:14:13.678263,62.0
2023-08-09 18:14:13.685954,76.0
2023-08-09 18:14:13.693644,88.0
2023-08-09 18:14:13.701335,95.0
2023-08-09 18:14:13.709025,95.0
2023-08-09 18:14:13.716716,90.0
2023-08-09 18:14:13.724407,76.0
2023-08-09 18:14:13.732097,54.0
2023-08-09 18:14:13.739788,23.0
2023-08-09 18:14:13.747478,-11.0
2023-08-09 18:14:13.755169,-50.0
2023-08-09 18:14:13.762859,-88.0
2023-08-09 18:14:13.770550,-124.0
2023-08-09 18:14:13.778240,-150.0
2023-08-09 18:14:13.785931,-169.0
2023-08-09 18:14:13.793621,-181.0
2023-08-09 18:14:13.801312,-191.0
2023-08-09 18:14:13.809003,-195.0
2023-08-09 18:14:13.816693,-200.0
2023-08-09 18:14:13.824384,-203.0
2023-08-09 18:14:13.832074,-193.0
2023-08-09 18:14:13.839765,-186.0
2023-08-09 18:14:13.847455,-179.0
2023-08-09 18:14:13.855146,-171.0
2023-08-09 18:14:13.862836,-167.0
2023-08-09 18:14:13.870527,-162.0
2023-08-09 18:14:13.878217,-157.0
2023-08-09 18:14:13.885908,-150.0
2023-08-09 18:14:13.893599,-145.0
2023-08-09 18:14:13.901289,-140.0
2023-08-09 18:14:13.908980,-138.0
2023-08-09 18:14:13.916670,-133.0
2023-08-09 18:14:13.924361,-133.0
2023-08-09 18:14:13.932051,-133.0
2023-08-09 18:14:13.939742,-131.0
2023-08-09 18:14:13.947432,-133.0
2023-08-09 18:14:13.955123,-133.0
2023-08-09 18:14:13.962813,-136.0
2023-08-09 18:14:13.970504,-133.0
2023-08-09 18:14:13.978194,-131.0
2023-08-09 18:14:13.985885,-128.0
2023-08-09 18:14:13.993576,-128.0
2023-08-09 18:14:14.001266,-128.0
2023-08-09 18:14:14.008957,-126.0
2023-08-09 18:14:14.016647,-121.0
2023-08-09 18:14:14.024338,-119.0
2023-08-09 18:14:14.032028,-117.0
2023-08-09 18:14:14.039719,-114.0
2023-08-09 18:14:14.047409,-114.0
2023-08-09 18:14:14.055100,-112.0
2023-08-09 18:14:14.062790,-107.0
2023-08-09 18:14:14.070481,-102.0
2023-08-09 18:14:14.078172,-102.0
2023-08-09 18:14:14.085862,-109.0
2023-08-09 18:14:14.093553,-109.0
2023-08-09 18:14:14.101243,-105.0
2023-08-09 18:14:14.108934,-102.0
2023-08-09 18:14:14.116624,-100.0
2023-08-09 18:14:14.124315,-95.0
2023-08-09 18:14:14.132005,-97.0
2023-08-09 18:14:14.139696,-100.0
2023-08-09 18:14:14.147386,-97.0
2023-08-09 18:14:14.155077,-93.0
2023-08-09 18:14:14.162768,-88.0
2023-08-09 18:14:14.170458,-88.0
2023-08-09 18:14:14.178149,-90.0
2023-08-09 18:14:14.185839,-88.0
2023-08-09 18:14:14.193530,-85.0
2023-08-09 18:14:14.201220,-83.0
2023-08-09 18:14:14.208911,-81.0
2023-08-09 18:14:14.216601,-78.0
2023-08-09 18:14:14.224292,-78.0
2023-08-09 18:14:14.231982,-76.0
2023-08-09 18:14:14.239673,-74.0
2023-08-09 18:14:14.247363,-66.0
2023-08-09 18:14:14.255054,-54.0
2023-08-09 18:14:14.262745,-38.0
2023-08-09 18:14:14.270435,-33.0
2023-08-09 18:14:14.278126,-31.0
2023-08-09 18:14:14.285816,-40.0
2023-08-09 18:14:14.293507,-62.0
2023-08-09 18:14:14.301197,-76.0
2023-08-09 18:14:14.308888,-76.0
2023-08-09 18:14:14.316578,-78.0
2023-08-09 18:14:14.324269,-83.0
2023-08-09 18:14:14.331959,-81.0
2023-08-09 18:14:14.339650,-76.0
2023-08-09 18:14:14.347341,-74.0
2023-08-09 18:14:14.355031,-83.0
2023-08-09 18:14:14.362722,-100.0
2023-08-09 18:14:14.370412,-14.0
2023-08-09 18:14:14.378103,327.0
2023-08-09 18:14:14.385793,867.0
2023-08-09 18:14:14.393484,1268.0
2023-08-09 18:14:14.401174,1203.0
2023-08-09 18:14:14.408865,721.0
2023-08-09 18:14:14.416555,157.0
2023-08-09 18:14:14.424246,-160.0
2023-08-09 18:14:14.431937,-176.0
2023-08-09 18:14:14.439627,-157.0
2023-08-09 18:14:14.447318,-217.0
2023-08-09 18:14:14.455008,-234.0
2023-08-09 18:14:14.462699,-210.0
2023-08-09 18:14:14.470389,-210.0
2023-08-09 18:14:14.478080,-210.0
2023-08-09 18:14:14.485770,-191.0
2023-08-09 18:14:14.493461,-181.0
2023-08-09 18:14:14.501151,-171.0
2023-08-09 18:14:14.508842,-155.0
2023-08-09 18:14:14.516532,-140.0
2023-08-09 18:14:14.524223,-128.0
2023-08-09 18:14:14.531914,-112.0
2023-08-09 18:14:14.539604,-93.0
2023-08-09 18:14:14.547295,-76.0
2023-08-09 18:14:14.554985,-59.0
2023-08-09 18:14:14.562676,-38.0
2023-08-09 18:14:14.570366,-19.0
2023-08-09 18:14:14.578057,0.0
2023-08-09 18:14:14.585747,14.0
2023-08-09 18:14:14.593438,28.0
2023-08-09 18:14:14.601128,45.0
2023-08-09 18:14:14.608819,64.0
2023-08-09 18:14:14.616510,74.0
2023-08-09 18:14:14.624200,74.0
2023-08-09 18:14:14.631891,71.0
2023-08-09 18:14:14.639581,62.0
2023-08-09 18:14:14.647272,45.0
2023-08-09 18:14:14.654962,21.0
2023-08-09 18:14:14.662653,-11.0
2023-08-09 18:14:14.670343,-52.0
2023-08-09 18:14:14.678034,-88.0
2023-08-09 18:14:14.685724,-121.0
2023-08-09 18:14:14.693415,-148.0
2023-08-09 18:14:14.701106,-169.0
2023-08-09 18:14:14.708796,-183.0
2023-08-09 18:14:14.716487,-193.0
2023-08-09 18:14:14.724177,-195.0
2023-08-09 18:14:14.731868,-188.0
2023-08-09 18:14:14.739558,-183.0
2023-08-09 18:14:14.747249,-181.0
2023-08-09 18:14:14.754939,-179.0
2023-08-09 18:14:14.762630,-171.0
2023-08-09 18:14:14.770320,-164.0
2023-08-09 18:14:14.778011,-160.0
2023-08-09 18:14:14.785702,-155.0
2023-08-09 18:14:14.793392,-150.0
2023-08-09 18:14:14.801083,-148.0
2023-08-09 18:14:14.808773,-148.0
2023-08-09 18:14:14.816464,-145.0
2023-08-09 18:14:14.824154,-138.0
2023-08-09 18:14:14.831845,-133.0
2023-08-09 18:14:14.839535,-131.0
2023-08-09 18:14:14.847226,-131.0
2023-08-09 18:14:14.854916,-128.0
2023-08-09 18:14:14.862607,-128.0
2023-08-09 18:14:14.870297,-131.0
2023-08-09 18:14:14.877988,-131.0
2023-08-09 18:14:14.885679,-131.0
2023-08-09 18:14:14.893369,-136.0
2023-08-09 18:14:14.901060,-140.0
2023-08-09 18:14:14.908750,-138.0
2023-08-09 18:14:14.916441,-133.0
2023-08-09 18:14:14.924131,-133.0
2023-08-09 18:14:14.931822,-133.0
2023-08-09 18:14:14.939512,-126.0
2023-08-09 18:14:14.947203,-124.0
2023-08-09 18:14:14.954893,-124.0
2023-08-09 18:14:14.962584,-121.0
2023-08-09 18:14:14.970275,-114.0
2023-08-09 18:14:14.977965,-112.0
2023-08-09 18:14:14.985656,-112.0
2023-08-09 18:14:14.993346,-112.0
2023-08-09 18:14:15.001037,-107.0
2023-08-09 18:14:15.008727,-102.0
2023-08-09 18:14:15.016418,-100.0
2023-08-09 18:14:15.024108,-102.0
2023-08-09 18:14:15.031799,-102.0
2023-08-09 18:14:15.039489,-100.0
2023-08-09 18:14:15.047180,-93.0
2023-08-09 18:14:15.054871,-93.0
2023-08-09 18:14:15.062561,-90.0
2023-08-09 18:14:15.070252,-88.0
2023-08-09 18:14:15.077942,-90.0
2023-08-09 18:14:15.085633,-85.0
2023-08-09 18:14:15.093323,-85.0
2023-08-09 18:14:15.101014,-90.0
2023-08-09 18:14:15.108704,-93.0
2023-08-09 18:14:15.116395,-88.0
2023-08-09 18:14:15.124085,-88.0
2023-08-09 18:14:15.131776,-90.0
2023-08-09 18:14:15.139466,-88.0
2023-08-09 18:14:15.147157,-83.0
2023-08-09 18:14:15.154848,-81.0
2023-08-09 18:14:15.162538,-81.0
2023-08-09 18:14:15.170229,-81.0
2023-08-09 18:14:15.177919,-78.0
2023-08-09 18:14:15.185610,-74.0
2023-08-09 18:14:15.193300,-74.0
2023-08-09 18:14:15.200991,-71.0
2023-08-09 18:14:15.208681,-69.0
2023-08-09 18:14:15.216372,-71.0
2023-08-09 18:14:15.224062,-69.0
2023-08-09 18:14:15.231753,-57.0
2023-08-09 18:14:15.239444,-40.0
2023-08-09 18:14:15.247134,-28.0
2023-08-09 18:14:15.254825,-26.0
2023-08-09 18:14:15.262515,-23.0
2023-08-09 18:14:15.270206,-28.0
2023-08-09 18:14:15.277896,-52.0
2023-08-09 18:14:15.285587,-69.0
2023-08-09 18:14:15.293277,-71.0
2023-08-09 18:14:15.300968,-74.0
2023-08-09 18:14:15.308658,-78.0
2023-08-09 18:14:15.316349,-74.0
2023-08-09 18:14:15.324040,-71.0
2023-08-09 18:14:15.331730,-69.0
2023-08-09 18:14:15.339421,-69.0
2023-08-09 18:14:15.347111,-78.0
2023-08-09 18:14:15.354802,-11.0
2023-08-09 18:14:15.362492,293.0
2023-08-09 18:14:15.370183,819.0
2023-08-09 18:14:15.377873,1239.0
2023-08-09 18:14:15.385564,1215.0
2023-08-09 18:14:15.393254,764.0
2023-08-09 18:14:15.400945,205.0
2023-08-09 18:14:15.408635,-133.0
2023-08-09 18:14:15.416326,-167.0
2023-08-09 18:14:15.424017,-145.0
2023-08-09 18:14:15.431707,-203.0
2023-08-09 18:14:15.439398,-231.0
2023-08-09 18:14:15.447088,-207.0
2023-08-09 18:14:15.454779,-200.0
2023-08-09 18:14:15.462469,-198.0
2023-08-09 18:14:15.470160,-181.0
2023-08-09 18:14:15.477850,-171.0
2023-08-09 18:14:15.485541,-171.0
2023-08-09 18:14:15.493231,-160.0
2023-08-09 18:14:15.500922,-138.0
2023-08-09 18:14:15.508613,-124.0
2023-08-09 18:14:15.516303,-109.0
2023-08-09 18:14:15.523994,-90.0
2023-08-09 18:14:15.531684,-76.0
2023-08-09 18:14:15.539375,-59.0
2023-08-09 18:14:15.547065,-40.0
2023-08-09 18:14:15.554756,-21.0
2023-08-09 18:14:15.562446,-2.0
2023-08-09 18:14:15.570137,16.0
2023-08-09 18:14:15.577827,35.0
2023-08-09 18:14:15.585518,50.0
2023-08-09 18:14:15.593209,64.0
2023-08-09 18:14:15.600899,74.0
2023-08-09 18:14:15.608590,71.0
2023-08-09 18:14:15.616280,66.0
2023-08-09 18:14:15.623971,59.0
2023-08-09 18:14:15.631661,47.0
2023-08-09 18:14:15.639352,28.0
2023-08-09 18:14:15.647042,2.0
2023-08-09 18:14:15.654733,-31.0
2023-08-09 18:14:15.662423,-69.0
2023-08-09 18:14:15.670114,-107.0
2023-08-09 18:14:15.677805,-133.0
2023-08-09 18:14:15.685495,-150.0
2023-08-09 18:14:15.693186,-162.0
2023-08-09 18:14:15.700876,-176.0
2023-08-09 18:14:15.708567,-183.0
2023-08-09 18:14:15.716257,-181.0
2023-08-09 18:14:15.723948,-176.0
2023-08-09 18:14:15.731638,-171.0
2023-08-09 18:14:15.739329,-169.0
2023-08-09 18:14:15.747019,-162.0
2023-08-09 18:14:15.754710,-155.0
2023-08-09 18:14:15.762400,-150.0
2023-08-09 18:14:15.770091,-145.0
2023-08-09 18:14:15.777782,-140.0
2023-08-09 18:14:15.785472,-140.0
2023-08-09 18:14:15.793163,-138.0
2023-08-09 18:14:15.800853,-133.0
2023-08-09 18:14:15.808544,-131.0
2023-08-09 18:14:15.816234,-128.0
2023-08-09 18:14:15.823925,-126.0
2023-08-09 18:14:15.831615,-121.0
2023-08-09 18:14:15.839306,-124.0
2023-08-09 18:14:15.846996,-124.0
2023-08-09 18:14:15.854687,-126.0
2023-08-09 18:14:15.862378,-133.0
2023-08-09 18:14:15.870068,-136.0
2023-08-09 18:14:15.877759,-126.0
2023-08-09 18:14:15.885449,-121.0
2023-08-09 18:14:15.893140,-121.0
2023-08-09 18:14:15.900830,-119.0
2023-08-09 18:14:15.908521,-117.0
2023-08-09 18:14:15.916211,-112.0
2023-08-09 18:14:15.923902,-109.0
2023-08-09 18:14:15.931592,-107.0
2023-08-09 18:14:15.939283,-107.0
2023-08-09 18:14:15.946974,-107.0
2023-08-09 18:14:15.954664,-105.0
2023-08-09 18:14:15.962355,-105.0
2023-08-09 18:14:15.970045,-105.0
2023-08-09 18:14:15.977736,-102.0
2023-08-09 18:14:15.985426,-102.0
2023-08-09 18:14:15.993117,-100.0
2023-08-09 18:14:16.000807,-95.0
2023-08-09 18:14:16.008498,-93.0
2023-08-09 18:14:16.016188,-93.0
2023-08-09 18:14:16.023879,-100.0
2023-08-09 18:14:16.031569,-105.0
2023-08-09 18:14:16.039260,-100.0
2023-08-09 18:14:16.046951,-95.0
2023-08-09 18:14:16.054641,-95.0
2023-08-09 18:14:16.062332,-93.0
2023-08-09 18:14:16.070022,-90.0
2023-08-09 18:14:16.077713,-88.0
2023-08-09 18:14:16.085403,-88.0
2023-08-09 18:14:16.093094,-85.0
2023-08-09 18:14:16.100784,-85.0
2023-08-09 18:14:16.108475,-88.0
2023-08-09 18:14:16.116165,-90.0
2023-08-09 18:14:16.123856,-88.0
2023-08-09 18:14:16.131547,-88.0
2023-08-09 18:14:16.139237,-88.0
2023-08-09 18:14:16.146928,-83.0
2023-08-09 18:14:16.154618,-83.0
2023-08-09 18:14:16.162309,-85.0
2023-08-09 18:14:16.169999,-81.0
2023-08-09 18:14:16.177690,-76.0
2023-08-09 18:14:16.185380,-76.0
2023-08-09 18:14:16.193071,-74.0
2023-08-09 18:14:16.200761,-71.0
2023-08-09 18:14:16.208452,-71.0
2023-08-09 18:14:16.216143,-62.0
2023-08-09 18:14:16.223833,-47.0
2023-08-09 18:14:16.231524,-35.0
2023-08-09 18:14:16.239214,-28.0
2023-08-09 18:14:16.246905,-31.0
2023-08-09 18:14:16.254595,-47.0
2023-08-09 18:14:16.262286,-69.0
2023-08-09 18:14:16.269976,-74.0
2023-08-09 18:14:16.277667,-76.0
2023-08-09 18:14:16.285357,-78.0
2023-08-09 18:14:16.293048,-78.0
2023-08-09 18:14:16.300738,-78.0
2023-08-09 18:14:16.308429,-76.0
2023-08-09 18:14:16.316120,-76.0
2023-08-09 18:14:16.323810,-83.0
2023-08-09 18:14:16.331501,-83.0
2023-08-09 18:14:16.339191,31.0
2023-08-09 18:14:16.346882,420.0
2023-08-09 18:14:16.354572,986.0
2023-08-09 18:14:16.362263,1323.0
2023-08-09 18:14:16.369953,1105.0
2023-08-09 18:14:16.377644,520.0
2023-08-09 18:14:16.385334,19.0
2023-08-09 18:14:16.393025,-162.0
2023-08-09 18:14:16.400716,-148.0
2023-08-09 18:14:16.408406,-171.0
2023-08-09 18:14:16.416097,-219.0
2023-08-09 18:14:16.423787,-214.0
2023-08-09 18:14:16.431478,-210.0
2023-08-09 18:14:16.439168,-207.0
2023-08-09 18:14:16.446859,-188.0
2023-08-09 18:14:16.454549,-171.0
2023-08-09 18:14:16.462240,-167.0
2023-08-09 18:14:16.469930,-157.0
2023-08-09 18:14:16.477621,-138.0
2023-08-09 18:14:16.485312,-119.0
2023-08-09 18:14:16.493002,-105.0
2023-08-09 18:14:16.500693,-93.0
2023-08-09 18:14:16.508383,-76.0
2023-08-09 18:14:16.516074,-59.0
2023-08-09 18:14:16.523764,-42.0
2023-08-09 18:14:16.531455,-23.0
2023-08-09 18:14:16.539145,-7.0
2023-08-09 18:14:16.546836,16.0
2023-08-09 18:14:16.554526,40.0
2023-08-09 18:14:16.562217,57.0
2023-08-09 18:14:16.569907,69.0
2023-08-09 18:14:16.577598,88.0
2023-08-09 18:14:16.585289,100.0
2023-08-09 18:14:16.592979,100.0
2023-08-09 18:14:16.600670,90.0
2023-08-09 18:14:16.608360,74.0
2023-08-09 18:14:16.616051,52.0
2023-08-09 18:14:16.623741,28.0
2023-08-09 18:14:16.631432,-2.0
2023-08-09 18:14:16.639122,-42.0
2023-08-09 18:14:16.646813,-85.0
2023-08-09 18:14:16.654503,-128.0
2023-08-09 18:14:16.662194,-162.0
2023-08-09 18:14:16.669885,-176.0
2023-08-09 18:14:16.677575,-191.0
2023-08-09 18:14:16.685266,-203.0
2023-08-09 18:14:16.692956,-207.0
2023-08-09 18:14:16.700647,-207.0
2023-08-09 18:14:16.708337,-203.0
2023-08-09 18:14:16.716028,-193.0
2023-08-09 18:14:16.723718,-186.0
2023-08-09 18:14:16.731409,-179.0
2023-08-09 18:14:16.739099,-171.0
2023-08-09 18:14:16.746790,-167.0
2023-08-09 18:14:16.754481,-162.0
2023-08-09 18:14:16.762171,-157.0
2023-08-09 18:14:16.769862,-150.0
2023-08-09 18:14:16.777552,-145.0
2023-08-09 18:14:16.785243,-145.0
2023-08-09 18:14:16.792933,-143.0
2023-08-09 18:14:16.800624,-140.0
2023-08-09 18:14:16.808314,-138.0
2023-08-09 18:14:16.816005,-133.0
2023-08-09 18:14:16.823695,-133.0
2023-08-09 18:14:16.831386,-136.0
2023-08-09 18:14:16.839077,-138.0
2023-08-09 18:14:16.846767,-140.0
2023-08-09 18:14:16.854458,-140.0
2023-08-09 18:14:16.862148,-136.0
2023-08-09 18:14:16.869839,-133.0
2023-08-09 18:14:16.877529,-133.0
2023-08-09 18:14:16.885220,-131.0
2023-08-09 18:14:16.892910,-126.0
2023-08-09 18:14:16.900601,-124.0
2023-08-09 18:14:16.908291,-124.0
2023-08-09 18:14:16.915982,-121.0
2023-08-09 18:14:16.923672,-121.0
2023-08-09 18:14:16.931363,-119.0
2023-08-09 18:14:16.939054,-114.0
2023-08-09 18:14:16.946744,-112.0
2023-08-09 18:14:16.954435,-109.0
2023-08-09 18:14:16.962125,-109.0
2023-08-09 18:14:16.969816,-109.0
2023-08-09 18:14:16.977506,-107.0
2023-08-09 18:14:16.985197,-102.0
2023-08-09 18:14:16.992887,-100.0
2023-08-09 18:14:17.000578,-97.0
2023-08-09 18:14:17.008268,-95.0
2023-08-09 18:14:17.015959,-97.0
2023-08-09 18:14:17.023650,-95.0
2023-08-09 18:14:17.031340,-90.0
2023-08-09 18:14:17.039031,-88.0
2023-08-09 18:14:17.046721,-88.0
2023-08-09 18:14:17.054412,-88.0
2023-08-09 18:14:17.062102,-85.0
2023-08-09 18:14:17.069793,-83.0
2023-08-09 18:14:17.077483,-78.0
2023-08-09 18:14:17.085174,-81.0
2023-08-09 18:14:17.092864,-85.0
2023-08-09 18:14:17.100555,-85.0
2023-08-09 18:14:17.108246,-76.0
2023-08-09 18:14:17.115936,-64.0
2023-08-09 18:14:17.123627,-54.0
2023-08-09 18:14:17.131317,-45.0
2023-08-09 18:14:17.139008,-38.0
2023-08-09 18:14:17.146698,-54.0
2023-08-09 18:14:17.154389,-78.0
2023-08-09 18:14:17.162079,-88.0
2023-08-09 18:14:17.169770,-88.0
2023-08-09 18:14:17.177460,-90.0
2023-08-09 18:14:17.185151,-93.0
2023-08-09 18:14:17.192841,-100.0
2023-08-09 18:14:17.200532,-105.0
2023-08-09 18:14:17.208223,-100.0
2023-08-09 18:14:17.215913,-97.0
2023-08-09 18:14:17.223604,-105.0
2023-08-09 18:14:17.231294,-2.0
2023-08-09 18:14:17.238985,379.0
2023-08-09 18:14:17.246675,953.0
2023-08-09 18:14:17.254366,1323.0
2023-08-09 18:14:17.262056,1160.0
2023-08-09 18:14:17.269747,611.0
2023-08-09 18:14:17.277437,74.0
2023-08-09 18:14:17.285128,-169.0
2023-08-09 18:14:17.292819,-155.0
2023-08-09 18:14:17.300509,-157.0
2023-08-09 18:14:17.308200,-217.0
2023-08-09 18:14:17.315890,-217.0
2023-08-09 18:14:17.323581,-198.0
2023-08-09 18:14:17.331271,-205.0
2023-08-09 18:14:17.338962,-200.0
2023-08-09 18:14:17.346652,-179.0
2023-08-09 18:14:17.354343,-164.0
2023-08-09 18:14:17.362033,-150.0
2023-08-09 18:14:17.369724,-136.0
2023-08-09 18:14:17.377415,-121.0
2023-08-09 18:14:17.385105,-105.0
2023-08-09 18:14:17.392796,-85.0
2023-08-09 18:14:17.400486,-66.0
2023-08-09 18:14:17.408177,-47.0
2023-08-09 18:14:17.415867,-31.0
2023-08-09 18:14:17.423558,-11.0
2023-08-09 18:14:17.431248,7.0
2023-08-09 18:14:17.438939,31.0
2023-08-09 18:14:17.446629,50.0
2023-08-09 18:14:17.454320,69.0
2023-08-09 18:14:17.462010,85.0
2023-08-09 18:14:17.469701,100.0
2023-08-09 18:14:17.477392,109.0
2023-08-09 18:14:17.485082,109.0
2023-08-09 18:14:17.492773,105.0
2023-08-09 18:14:17.500463,90.0
2023-08-09 18:14:17.508154,71.0
2023-08-09 18:14:17.515844,40.0
2023-08-09 18:14:17.523535,0.0
2023-08-09 18:14:17.531225,-40.0
2023-08-09 18:14:17.538916,-78.0
2023-08-09 18:14:17.546606,-112.0
2023-08-09 18:14:17.554297,-143.0
2023-08-09 18:14:17.561988,-164.0
2023-08-09 18:14:17.569678,-179.0
2023-08-09 18:14:17.577369,-186.0
2023-08-09 18:14:17.585059,-193.0
2023-08-09 18:14:17.592750,-195.0
2023-08-09 18:14:17.600440,-191.0
2023-08-09 18:14:17.608131,-183.0
2023-08-09 18:14:17.615821,-176.0
2023-08-09 18:14:17.623512,-174.0
2023-08-09 18:14:17.631202,-169.0
2023-08-09 18:14:17.638893,-162.0
2023-08-09 18:14:17.646584,-155.0
2023-08-09 18:14:17.654274,-150.0
2023-08-09 18:14:17.661965,-145.0
2023-08-09 18:14:17.669655,-138.0
2023-08-09 18:14:17.677346,-133.0
2023-08-09 18:14:17.685036,-131.0
2023-08-09 18:14:17.692727,-128.0
2023-08-09 18:14:17.700417,-126.0
2023-08-09 18:14:17.708108,-126.0
2023-08-09 18:14:17.715798,-124.0
2023-08-09 18:14:17.723489,-124.0
2023-08-09 18:14:17.731179,-131.0
2023-08-09 18:14:17.738870,-136.0
2023-08-09 18:14:17.746561,-133.0
2023-08-09 18:14:17.754251,-131.0
2023-08-09 18:14:17.761942,-131.0
2023-08-09 18:14:17.769632,-126.0
2023-08-09 18:14:17.777323,-124.0
2023-08-09 18:14:17.785013,-124.0
2023-08-09 18:14:17.792704,-121.0
2023-08-09 18:14:17.800394,-117.0
2023-08-09 18:14:17.808085,-114.0
2023-08-09 18:14:17.815775,-112.0
2023-08-09 18:14:17.823466,-109.0
2023-08-09 18:14:17.831157,-109.0
2023-08-09 18:14:17.838847,-109.0
2023-08-09 18:14:17.846538,-105.0
2023-08-09 18:14:17.854228,-102.0
2023-08-09 18:14:17.861919,-102.0
2023-08-09 18:14:17.869609,-97.0
2023-08-09 18:14:17.877300,-95.0
2023-08-09 18:14:17.884990,-95.0
2023-08-09 18:14:17.892681,-93.0
2023-08-09 18:14:17.900371,-90.0
2023-08-09 18:14:17.908062,-88.0
2023-08-09 18:14:17.915753,-85.0
2023-08-09 18:14:17.923443,-83.0
2023-08-09 18:14:17.931134,-81.0
2023-08-09 18:14:17.938824,-81.0
2023-08-09 18:14:17.946515,-76.0
2023-08-09 18:14:17.954205,-74.0
2023-08-09 18:14:17.961896,-74.0
2023-08-09 18:14:17.969586,-74.0
2023-08-09 18:14:17.977277,-69.0
2023-08-09 18:14:17.984967,-66.0
2023-08-09 18:14:17.992658,-66.0
2023-08-09 18:14:18.000349,-64.0
2023-08-09 18:14:18.008039,-57.0
2023-08-09 18:14:18.015730,-40.0
2023-08-09 18:14:18.023420,-31.0
2023-08-09 18:14:18.031111,-26.0
2023-08-09 18:14:18.038801,-26.0
2023-08-09 18:14:18.046492,-42.0
2023-08-09 18:14:18.054182,-66.0
2023-08-09 18:14:18.061873,-74.0
2023-08-09 18:14:18.069563,-74.0
2023-08-09 18:14:18.077254,-78.0
2023-08-09 18:14:18.084944,-81.0
2023-08-09 18:14:18.092635,-81.0
2023-08-09 18:14:18.100326,-78.0
2023-08-09 18:14:18.108016,-76.0
2023-08-09 18:14:18.115707,-85.0
2023-08-09 18:14:18.123397,-83.0
2023-08-09 18:14:18.131088,81.0
2023-08-09 18:14:18.138778,525.0
2023-08-09 18:14:18.146469,1070.0
2023-08-09 18:14:18.154159,1316.0
2023-08-09 18:14:18.161850,1050.0
2023-08-09 18:14:18.169540,484.0
2023-08-09 18:14:18.177231,0.0
2023-08-09 18:14:18.184922,-183.0
2023-08-09 18:14:18.192612,-155.0
2023-08-09 18:14:18.200303,-167.0
2023-08-09 18:14:18.207993,-229.0
2023-08-09 18:14:18.215684,-219.0
2023-08-09 18:14:18.223374,-198.0
2023-08-09 18:14:18.231065,-203.0
2023-08-09 18:14:18.238755,-191.0
2023-08-09 18:14:18.246446,-169.0
2023-08-09 18:14:18.254136,-160.0
2023-08-09 18:14:18.261827,-148.0
2023-08-09 18:14:18.269518,-136.0
2023-08-09 18:14:18.277208,-126.0
2023-08-09 18:14:18.284899,-112.0
2023-08-09 18:14:18.292589,-90.0
2023-08-09 18:14:18.300280,-71.0
2023-08-09 18:14:18.307970,-52.0
2023-08-09 18:14:18.315661,-35.0
2023-08-09 18:14:18.323351,-16.0
2023-08-09 18:14:18.331042,2.0
2023-08-09 18:14:18.338732,23.0
2023-08-09 18:14:18.346423,42.0
2023-08-09 18:14:18.354113,62.0
2023-08-09 18:14:18.361804,78.0
2023-08-09 18:14:18.369495,88.0
2023-08-09 18:14:18.377185,97.0
2023-08-09 18:14:18.384876,102.0
2023-08-09 18:14:18.392566,97.0
2023-08-09 18:14:18.400257,83.0
2023-08-09 18:14:18.407947,62.0
2023-08-09 18:14:18.415638,33.0
2023-08-09 18:14:18.423328,-4.0
2023-08-09 18:14:18.431019,-42.0
2023-08-09 18:14:18.438709,-83.0
2023-08-09 18:14:18.446400,-117.0
2023-08-09 18:14:18.454091,-143.0
2023-08-09 18:14:18.461781,-162.0
2023-08-09 18:14:18.469472,-176.0
2023-08-09 18:14:18.477162,-181.0
2023-08-09 18:14:18.484853,-183.0
2023-08-09 18:14:18.492543,-183.0
2023-08-09 18:14:18.500234,-179.0
2023-08-09 18:14:18.507924,-169.0
2023-08-09 18:14:18.515615,-162.0
2023-08-09 18:14:18.523305,-157.0
2023-08-09 18:14:18.530996,-152.0
2023-08-09 18:14:18.538687,-145.0
2023-08-09 18:14:18.546377,-140.0
2023-08-09 18:14:18.554068,-138.0
2023-08-09 18:14:18.561758,-136.0
2023-08-09 18:14:18.569449,-133.0
2023-08-09 18:14:18.577139,-131.0
2023-08-09 18:14:18.584830,-131.0
2023-08-09 18:14:18.592520,-128.0
2023-08-09 18:14:18.600211,-124.0
2023-08-09 18:14:18.607901,-119.0
2023-08-09 18:14:18.615592,-121.0
2023-08-09 18:14:18.623282,-124.0
2023-08-09 18:14:18.630973,-124.0
2023-08-09 18:14:18.638664,-124.0
2023-08-09 18:14:18.646354,-128.0
2023-08-09 18:14:18.654045,-128.0
2023-08-09 18:14:18.661735,-126.0
2023-08-09 18:14:18.669426,-124.0
2023-08-09 18:14:18.677116,-124.0
2023-08-09 18:14:18.684807,-121.0
2023-08-09 18:14:18.692497,-121.0
2023-08-09 18:14:18.700188,-117.0
2023-08-09 18:14:18.707878,-109.0
2023-08-09 18:14:18.715569,-105.0
2023-08-09 18:14:18.723260,-105.0
2023-08-09 18:14:18.730950,-105.0
2023-08-09 18:14:18.738641,-100.0
2023-08-09 18:14:18.746331,-95.0
2023-08-09 18:14:18.754022,-95.0
2023-08-09 18:14:18.761712,-95.0
2023-08-09 18:14:18.769403,-97.0
2023-08-09 18:14:18.777093,-90.0
2023-08-09 18:14:18.784784,-83.0
2023-08-09 18:14:18.792474,-83.0
2023-08-09 18:14:18.800165,-83.0
2023-08-09 18:14:18.807856,-83.0
2023-08-09 18:14:18.815546,-83.0
2023-08-09 18:14:18.823237,-83.0
2023-08-09 18:14:18.830927,-81.0
2023-08-09 18:14:18.838618,-81.0
2023-08-09 18:14:18.846308,-78.0
2023-08-09 18:14:18.853999,-81.0
2023-08-09 18:14:18.861689,-88.0
2023-08-09 18:14:18.869380,-85.0
2023-08-09 18:14:18.877070,-81.0
2023-08-09 18:14:18.884761,-81.0
2023-08-09 18:14:18.892452,-78.0
2023-08-09 18:14:18.900142,-76.0
2023-08-09 18:14:18.907833,-76.0
2023-08-09 18:14:18.915523,-74.0
2023-08-09 18:14:18.923214,-69.0
2023-08-09 18:14:18.930904,-69.0
2023-08-09 18:14:18.938595,-66.0
2023-08-09 18:14:18.946285,-57.0
2023-08-09 18:14:18.953976,-42.0
2023-08-09 18:14:18.961666,-31.0
2023-08-09 18:14:18.969357,-23.0
2023-08-09 18:14:18.977047,-21.0
2023-08-09 18:14:18.984738,-35.0
2023-08-09 18:14:18.992429,-62.0
2023-08-09 18:14:19.000119,-78.0
2023-08-09 18:14:19.007810,-78.0
2023-08-09 18:14:19.015500,-76.0
2023-08-09 18:14:19.023191,-74.0
2023-08-09 18:14:19.030881,-71.0
2023-08-09 18:14:19.038572,-71.0
2023-08-09 18:14:19.046262,-66.0
2023-08-09 18:14:19.053953,-71.0
2023-08-09 18:14:19.061643,-76.0
2023-08-09 18:14:19.069334,40.0
2023-08-09 18:14:19.077025,427.0
2023-08-09 18:14:19.084715,967.0
2023-08-09 18:14:19.092406,1292.0
2023-08-09 18:14:19.100096,1127.0
2023-08-09 18:14:19.107787,606.0
2023-08-09 18:14:19.115477,85.0
2023-08-09 18:14:19.123168,-164.0
2023-08-09 18:14:19.130858,-160.0
2023-08-09 18:14:19.138549,-155.0
2023-08-09 18:14:19.146239,-217.0
2023-08-09 18:14:19.153930,-229.0
2023-08-09 18:14:19.161621,-207.0
2023-08-09 18:14:19.169311,-207.0
2023-08-09 18:14:19.177002,-203.0
2023-08-09 18:14:19.184692,-181.0
2023-08-09 18:14:19.192383,-167.0
2023-08-09 18:14:19.200073,-157.0
2023-08-09 18:14:19.207764,-140.0
2023-08-09 18:14:19.215454,-124.0
2023-08-09 18:14:19.223145,-112.0
2023-08-09 18:14:19.230835,-97.0
2023-08-09 18:14:19.238526,-78.0
2023-08-09 18:14:19.246216,-57.0
2023-08-09 18:14:19.253907,-40.0
2023-08-09 18:14:19.261598,-26.0
2023-08-09 18:14:19.269288,-9.0
2023-08-09 18:14:19.276979,11.0
2023-08-09 18:14:19.284669,31.0
2023-08-09 18:14:19.292360,50.0
2023-08-09 18:14:19.300050,69.0
2023-08-09 18:14:19.307741,83.0
2023-08-09 18:14:19.315431,93.0
2023-08-09 18:14:19.323122,97.0
2023-08-09 18:14:19.330812,97.0
2023-08-09 18:14:19.338503,88.0
2023-08-09 18:14:19.346194,69.0
2023-08-09 18:14:19.353884,42.0
2023-08-09 18:14:19.361575,9.0
2023-08-09 18:14:19.369265,-28.0
2023-08-09 18:14:19.376956,-74.0
2023-08-09 18:14:19.384646,-109.0
2023-08-09 18:14:19.392337,-136.0
2023-08-09 18:14:19.400027,-164.0
2023-08-09 18:14:19.407718,-186.0
2023-08-09 18:14:19.415408,-188.0
2023-08-09 18:14:19.423099,-186.0
2023-08-09 18:14:19.430790,-186.0
2023-08-09 18:14:19.438480,-183.0
2023-08-09 18:14:19.446171,-179.0
2023-08-09 18:14:19.453861,-171.0
2023-08-09 18:14:19.461552,-167.0
2023-08-09 18:14:19.469242,-162.0
2023-08-09 18:14:19.476933,-160.0
2023-08-09 18:14:19.484623,-157.0
2023-08-09 18:14:19.492314,-150.0
2023-08-09 18:14:19.500004,-143.0
2023-08-09 18:14:19.507695,-140.0
2023-08-09 18:14:19.515385,-138.0
2023-08-09 18:14:19.523076,-133.0
2023-08-09 18:14:19.530767,-133.0
2023-08-09 18:14:19.538457,-136.0
2023-08-09 18:14:19.546148,-133.0
2023-08-09 18:14:19.553838,-133.0
2023-08-09 18:14:19.561529,-133.0
2023-08-09 18:14:19.569219,-128.0
2023-08-09 18:14:19.576910,-131.0
2023-08-09 18:14:19.584600,-133.0
2023-08-09 18:14:19.592291,-131.0
2023-08-09 18:14:19.599981,-128.0
2023-08-09 18:14:19.607672,-126.0
2023-08-09 18:14:19.615363,-124.0
2023-08-09 18:14:19.623053,-121.0
2023-08-09 18:14:19.630744,-121.0
2023-08-09 18:14:19.638434,-119.0
2023-08-09 18:14:19.646125,-117.0
2023-08-09 18:14:19.653815,-121.0
2023-08-09 18:14:19.661506,-126.0
2023-08-09 18:14:19.669196,-124.0
2023-08-09 18:14:19.676887,-119.0
2023-08-09 18:14:19.684577,-114.0
2023-08-09 18:14:19.692268,-112.0
2023-08-09 18:14:19.699959,-112.0
2023-08-09 18:14:19.707649,-112.0
2023-08-09 18:14:19.715340,-109.0
2023-08-09 18:14:19.723030,-102.0
2023-08-09 18:14:19.730721,-100.0
2023-08-09 18:14:19.738411,-100.0
2023-08-09 18:14:19.746102,-97.0
2023-08-09 18:14:19.753792,-95.0
2023-08-09 18:14:19.761483,-93.0
2023-08-09 18:14:19.769173,-93.0
2023-08-09 18:14:19.776864,-90.0
2023-08-09 18:14:19.784554,-88.0
2023-08-09 18:14:19.792245,-83.0
2023-08-09 18:14:19.799936,-85.0
2023-08-09 18:14:19.807626,-90.0
2023-08-09 18:14:19.815317,-85.0
2023-08-09 18:14:19.823007,-78.0
2023-08-09 18:14:19.830698,-76.0
2023-08-09 18:14:19.838388,-76.0
2023-08-09 18:14:19.846079,-74.0
2023-08-09 18:14:19.853769,-69.0
2023-08-09 18:14:19.861460,-57.0
2023-08-09 18:14:19.869150,-42.0
2023-08-09 18:14:19.876841,-33.0
2023-08-09 18:14:19.884532,-26.0
2023-08-09 18:14:19.892222,-33.0
2023-08-09 18:14:19.899913,-57.0
2023-08-09 18:14:19.907603,-76.0
2023-08-09 18:14:19.915294,-76.0
2023-08-09 18:14:19.922984,-74.0
2023-08-09 18:14:19.930675,-78.0
2023-08-09 18:14:19.938365,-76.0
2023-08-09 18:14:19.946056,-71.0
2023-08-09 18:14:19.953746,-66.0
2023-08-09 18:14:19.961437,-69.0
2023-08-09 18:14:19.969128,-78.0
2023-08-09 18:14:19.976818,-16.0
2023-08-09 18:14:19.984509,286.0
2023-08-09 18:14:19.992199,852.0
2023-08-09 18:14:19.999890,1325.0
2023-08-09 18:14:20.007580,1273.0
2023-08-09 18:14:20.015271,733.0
2023-08-09 18:14:20.022961,145.0
2023-08-09 18:14:20.030652,-140.0
2023-08-09 18:14:20.038342,-155.0
2023-08-09 18:14:20.046033,-157.0
2023-08-09 18:14:20.053724,-217.0
2023-08-09 18:14:20.061414,-229.0
2023-08-09 18:14:20.069105,-212.0
2023-08-09 18:14:20.076795,-217.0
2023-08-09 18:14:20.084486,-212.0
2023-08-09 18:14:20.092176,-191.0
2023-08-09 18:14:20.099867,-179.0
2023-08-09 18:14:20.107557,-169.0
2023-08-09 18:14:20.115248,-152.0
2023-08-09 18:14:20.122938,-136.0
2023-08-09 18:14:20.130629,-121.0
2023-08-09 18:14:20.138319,-105.0
2023-08-09 18:14:20.146010,-85.0
2023-08-09 18:14:20.153701,-71.0
2023-08-09 18:14:20.161391,-59.0
2023-08-09 18:14:20.169082,-40.0
2023-08-09 18:14:20.176772,-19.0
2023-08-09 18:14:20.184463,2.0
2023-08-09 18:14:20.192153,21.0
2023-08-09 18:14:20.199844,42.0
2023-08-09 18:14:20.207534,64.0
2023-08-09 18:14:20.215225,81.0
2023-08-09 18:14:20.222915,93.0
2023-08-09 18:14:20.230606,95.0
2023-08-09 18:14:20.238297,93.0
2023-08-09 18:14:20.245987,83.0
2023-08-09 18:14:20.253678,64.0
2023-08-09 18:14:20.261368,38.0
2023-08-09 18:14:20.269059,2.0
2023-08-09 18:14:20.276749,-38.0
2023-08-09 18:14:20.284440,-78.0
2023-08-09 18:14:20.292130,-119.0
2023-08-09 18:14:20.299821,-150.0
2023-08-09 18:14:20.307511,-167.0
2023-08-09 18:14:20.315202,-181.0
2023-08-09 18:14:20.322893,-193.0
2023-08-09 18:14:20.330583,-198.0
2023-08-09 18:14:20.338274,-195.0
2023-08-09 18:14:20.345964,-193.0
2023-08-09 18:14:20.353655,-186.0
2023-08-09 18:14:20.361345,-179.0
2023-08-09 18:14:20.369036,-169.0
2023-08-09 18:14:20.376726,-162.0
2023-08-09 18:14:20.384417,-155.0
2023-08-09 18:14:20.392107,-148.0
2023-08-09 18:14:20.399798,-140.0
2023-08-09 18:14:20.407488,-133.0
2023-08-09 18:14:20.415179,-128.0
2023-08-09 18:14:20.422870,-124.0
2023-08-09 18:14:20.430560,-124.0
2023-08-09 18:14:20.438251,-121.0
2023-08-09 18:14:20.445941,-117.0
2023-08-09 18:14:20.453632,-114.0
2023-08-09 18:14:20.461322,-112.0
2023-08-09 18:14:20.469013,-112.0
2023-08-09 18:14:20.476703,-114.0
2023-08-09 18:14:20.484394,-112.0
2023-08-09 18:14:20.492084,-109.0
2023-08-09 18:14:20.499775,-112.0
2023-08-09 18:14:20.507466,-109.0
2023-08-09 18:14:20.515156,-107.0
2023-08-09 18:14:20.522847,-107.0
2023-08-09 18:14:20.530537,-107.0
2023-08-09 18:14:20.538228,-102.0
2023-08-09 18:14:20.545918,-105.0
2023-08-09 18:14:20.553609,-102.0
2023-08-09 18:14:20.561299,-102.0
2023-08-09 18:14:20.568990,-109.0
2023-08-09 18:14:20.576680,-112.0
2023-08-09 18:14:20.584371,-105.0
2023-08-09 18:14:20.592062,-102.0
2023-08-09 18:14:20.599752,-100.0
2023-08-09 18:14:20.607443,-100.0
2023-08-09 18:14:20.615133,-97.0
2023-08-09 18:14:20.622824,-97.0
2023-08-09 18:14:20.630514,-93.0
2023-08-09 18:14:20.638205,-88.0
2023-08-09 18:14:20.645895,-88.0
2023-08-09 18:14:20.653586,-85.0
2023-08-09 18:14:20.661276,-85.0
2023-08-09 18:14:20.668967,-90.0
2023-08-09 18:14:20.676657,-90.0
2023-08-09 18:14:20.684348,-83.0
2023-08-09 18:14:20.692039,-78.0
2023-08-09 18:14:20.699729,-81.0
2023-08-09 18:14:20.707420,-81.0
2023-08-09 18:14:20.715110,-78.0
2023-08-09 18:14:20.722801,-76.0
2023-08-09 18:14:20.730491,-74.0
2023-08-09 18:14:20.738182,-71.0
2023-08-09 18:14:20.745872,-69.0
2023-08-09 18:14:20.753563,-59.0
2023-08-09 18:14:20.761253,-40.0
2023-08-09 18:14:20.768944,-23.0
2023-08-09 18:14:20.776635,-16.0
2023-08-09 18:14:20.784325,-23.0
2023-08-09 18:14:20.792016,-45.0
2023-08-09 18:14:20.799706,-66.0
2023-08-09 18:14:20.807397,-71.0
2023-08-09 18:14:20.815087,-71.0
2023-08-09 18:14:20.822778,-71.0
2023-08-09 18:14:20.830468,-66.0
2023-08-09 18:14:20.838159,-66.0
2023-08-09 18:14:20.845849,-66.0
2023-08-09 18:14:20.853540,-62.0
2023-08-09 18:14:20.861231,-71.0
2023-08-09 18:14:20.868921,-64.0
2023-08-09 18:14:20.876612,107.0
2023-08-09 18:14:20.884302,563.0
2023-08-09 18:14:20.891993,1113.0
2023-08-09 18:14:20.899683,1359.0
2023-08-09 18:14:20.907374,1091.0
2023-08-09 18:14:20.915064,520.0
2023-08-09 18:14:20.922755,21.0
2023-08-09 18:14:20.930445,-169.0
2023-08-09 18:14:20.938136,-138.0
2023-08-09 18:14:20.945826,-152.0
2023-08-09 18:14:20.953517,-217.0
2023-08-09 18:14:20.961208,-207.0
2023-08-09 18:14:20.968898,-191.0
2023-08-09 18:14:20.976589,-198.0
2023-08-09 18:14:20.984279,-186.0
2023-08-09 18:14:20.991970,-164.0
2023-08-09 18:14:20.999660,-157.0
2023-08-09 18:14:21.007351,-145.0
2023-08-09 18:14:21.015041,-126.0
2023-08-09 18:14:21.022732,-114.0
2023-08-09 18:14:21.030422,-105.0
2023-08-09 18:14:21.038113,-88.0
2023-08-09 18:14:21.045804,-69.0
2023-08-09 18:14:21.053494,-50.0
2023-08-09 18:14:21.061185,-33.0
2023-08-09 18:14:21.068875,-16.0
2023-08-09 18:14:21.076566,4.0
2023-08-09 18:14:21.084256,26.0
2023-08-09 18:14:21.091947,47.0
2023-08-09 18:14:21.099637,64.0
2023-08-09 18:14:21.107328,76.0
2023-08-09 18:14:21.115018,83.0
2023-08-09 18:14:21.122709,93.0
2023-08-09 18:14:21.130400,97.0
2023-08-09 18:14:21.138090,93.0
2023-08-09 18:14:21.145781,78.0
2023-08-09 18:14:21.153471,57.0
2023-08-09 18:14:21.161162,23.0
2023-08-09 18:14:21.168852,-19.0
2023-08-09 18:14:21.176543,-66.0
2023-08-09 18:14:21.184233,-105.0
2023-08-09 18:14:21.191924,-136.0
2023-08-09 18:14:21.199614,-162.0
2023-08-09 18:14:21.207305,-179.0
2023-08-09 18:14:21.214996,-191.0
2023-08-09 18:14:21.222686,-195.0
2023-08-09 18:14:21.230377,-193.0
2023-08-09 18:14:21.238067,-188.0
2023-08-09 18:14:21.245758,-186.0
2023-08-09 18:14:21.253448,-181.0
2023-08-09 18:14:21.261139,-174.0
2023-08-09 18:14:21.268829,-167.0
2023-08-09 18:14:21.276520,-164.0
2023-08-09 18:14:21.284210,-162.0
2023-08-09 18:14:21.291901,-155.0
2023-08-09 18:14:21.299591,-150.0
2023-08-09 18:14:21.307282,-148.0
2023-08-09 18:14:21.314973,-143.0
2023-08-09 18:14:21.322663,-136.0
2023-08-09 18:14:21.330354,-133.0
2023-08-09 18:14:21.338044,-131.0
2023-08-09 18:14:21.345735,-128.0
2023-08-09 18:14:21.353425,-126.0
2023-08-09 18:14:21.361116,-124.0
2023-08-09 18:14:21.368806,-121.0
2023-08-09 18:14:21.376497,-124.0
2023-08-09 18:14:21.384187,-124.0
2023-08-09 18:14:21.391878,-119.0
2023-08-09 18:14:21.399569,-117.0
2023-08-09 18:14:21.407259,-117.0
2023-08-09 18:14:21.414950,-117.0
2023-08-09 18:14:21.422640,-114.0
2023-08-09 18:14:21.430331,-112.0
2023-08-09 18:14:21.438021,-112.0
2023-08-09 18:14:21.445712,-109.0
2023-08-09 18:14:21.453402,-107.0
2023-08-09 18:14:21.461093,-105.0
2023-08-09 18:14:21.468783,-102.0
2023-08-09 18:14:21.476474,-97.0
2023-08-09 18:14:21.484165,-95.0
2023-08-09 18:14:21.491855,-95.0
2023-08-09 18:14:21.499546,-95.0
2023-08-09 18:14:21.507236,-93.0
2023-08-09 18:14:21.514927,-93.0
2023-08-09 18:14:21.522617,-93.0
2023-08-09 18:14:21.530308,-93.0
2023-08-09 18:14:21.537998,-90.0
2023-08-09 18:14:21.545689,-88.0
2023-08-09 18:14:21.553379,-88.0
2023-08-09 18:14:21.561070,-85.0
2023-08-09 18:14:21.568760,-83.0
2023-08-09 18:14:21.576451,-81.0
2023-08-09 18:14:21.584142,-81.0
2023-08-09 18:14:21.591832,-78.0
2023-08-09 18:14:21.599523,-78.0
2023-08-09 18:14:21.607213,-76.0
2023-08-09 18:14:21.614904,-74.0
2023-08-09 18:14:21.622594,-74.0
2023-08-09 18:14:21.630285,-74.0
2023-08-09 18:14:21.637975,-71.0
2023-08-09 18:14:21.645666,-76.0
2023-08-09 18:14:21.653356,-81.0
2023-08-09 18:14:21.661047,-78.0
2023-08-09 18:14:21.668738,-78.0
2023-08-09 18:14:21.676428,-83.0
2023-08-09 18:14:21.684119,-83.0
2023-08-09 18:14:21.691809,-78.0
2023-08-09 18:14:21.699500,-81.0
2023-08-09 18:14:21.707190,-81.0
2023-08-09 18:14:21.714881,-69.0
2023-08-09 18:14:21.722571,-50.0
2023-08-09 18:14:21.730262,-38.0
2023-08-09 18:14:21.737952,-31.0
2023-08-09 18:14:21.745643,-26.0
2023-08-09 18:14:21.753334,-31.0
2023-08-09 18:14:21.761024,-52.0
2023-08-09 18:14:21.768715,-74.0
2023-08-09 18:14:21.776405,-81.0
2023-08-09 18:14:21.784096,-83.0
2023-08-09 18:14:21.791786,-81.0
2023-08-09 18:14:21.799477,-78.0
2023-08-09 18:14:21.807167,-76.0
2023-08-09 18:14:21.814858,-71.0
2023-08-09 18:14:21.822548,-71.0
2023-08-09 18:14:21.830239,-83.0
2023-08-09 18:14:21.837929,-33.0
2023-08-09 18:14:21.845620,248.0
2023-08-09 18:14:21.853311,771.0
2023-08-09 18:14:21.861001,1242.0
2023-08-09 18:14:21.868692,1296.0
2023-08-09 18:14:21.876382,881.0
2023-08-09 18:14:21.884073,291.0
2023-08-09 18:14:21.891763,-109.0
2023-08-09 18:14:21.899454,-179.0
2023-08-09 18:14:21.907144,-143.0
2023-08-09 18:14:21.914835,-195.0
2023-08-09 18:14:21.922525,-234.0
2023-08-09 18:14:21.930216,-207.0
2023-08-09 18:14:21.937907,-198.0
2023-08-09 18:14:21.945597,-203.0
2023-08-09 18:14:21.953288,-183.0
2023-08-09 18:14:21.960978,-167.0
2023-08-09 18:14:21.968669,-155.0
2023-08-09 18:14:21.976359,-140.0
2023-08-09 18:14:21.984050,-124.0
2023-08-09 18:14:21.991740,-109.0
2023-08-09 18:14:21.999431,-90.0
2023-08-09 18:14:22.007121,-76.0
2023-08-09 18:14:22.014812,-62.0
2023-08-09 18:14:22.022503,-45.0
2023-08-09 18:14:22.030193,-26.0
2023-08-09 18:14:22.037884,-7.0
2023-08-09 18:14:22.045574,11.0
2023-08-09 18:14:22.053265,31.0
2023-08-09 18:14:22.060955,52.0
2023-08-09 18:14:22.068646,71.0
2023-08-09 18:14:22.076336,88.0
2023-08-09 18:14:22.084027,100.0
2023-08-09 18:14:22.091717,105.0
2023-08-09 18:14:22.099408,105.0
2023-08-09 18:14:22.107099,100.0
2023-08-09 18:14:22.114789,90.0
2023-08-09 18:14:22.122480,66.0
2023-08-09 18:14:22.130170,33.0
2023-08-09 18:14:22.137861,-7.0
2023-08-09 18:14:22.145551,-47.0
2023-08-09 18:14:22.153242,-85.0
2023-08-09 18:14:22.160932,-117.0
2023-08-09 18:14:22.168623,-140.0
2023-08-09 18:14:22.176313,-162.0
2023-08-09 18:14:22.184004,-181.0
2023-08-09 18:14:22.191694,-195.0
2023-08-09 18:14:22.199385,-193.0
2023-08-09 18:14:22.207076,-186.0
2023-08-09 18:14:22.214766,-181.0
2023-08-09 18:14:22.222457,-176.0
2023-08-09 18:14:22.230147,-176.0
2023-08-09 18:14:22.237838,-176.0
2023-08-09 18:14:22.245528,-169.0
2023-08-09 18:14:22.253219,-162.0
2023-08-09 18:14:22.260909,-160.0
2023-08-09 18:14:22.268600,-160.0
2023-08-09 18:14:22.276290,-155.0
2023-08-09 18:14:22.283981,-150.0
2023-08-09 18:14:22.291672,-145.0
2023-08-09 18:14:22.299362,-138.0
2023-08-09 18:14:22.307053,-133.0
2023-08-09 18:14:22.314743,-131.0
2023-08-09 18:14:22.322434,-131.0
2023-08-09 18:14:22.330124,-128.0
2023-08-09 18:14:22.337815,-124.0
2023-08-09 18:14:22.345505,-124.0
2023-08-09 18:14:22.353196,-121.0
2023-08-09 18:14:22.360886,-121.0
2023-08-09 18:14:22.368577,-121.0
2023-08-09 18:14:22.376268,-119.0
2023-08-09 18:14:22.383958,-119.0
2023-08-09 18:14:22.391649,-114.0
2023-08-09 18:14:22.399339,-112.0
2023-08-09 18:14:22.407030,-112.0
2023-08-09 18:14:22.414720,-112.0
2023-08-09 18:14:22.422411,-107.0
2023-08-09 18:14:22.430101,-102.0
2023-08-09 18:14:22.437792,-100.0
2023-08-09 18:14:22.445482,-97.0
2023-08-09 18:14:22.453173,-95.0
2023-08-09 18:14:22.460863,-95.0
2023-08-09 18:14:22.468554,-95.0
2023-08-09 18:14:22.476245,-90.0
2023-08-09 18:14:22.483935,-88.0
2023-08-09 18:14:22.491626,-85.0
2023-08-09 18:14:22.499316,-85.0
2023-08-09 18:14:22.507007,-88.0
2023-08-09 18:14:22.514697,-85.0
2023-08-09 18:14:22.522388,-83.0
2023-08-09 18:14:22.530078,-81.0
2023-08-09 18:14:22.537769,-78.0
2023-08-09 18:14:22.545459,-78.0
2023-08-09 18:14:22.553150,-78.0
2023-08-09 18:14:22.560841,-74.0
2023-08-09 18:14:22.568531,-71.0
2023-08-09 18:14:22.576222,-69.0
2023-08-09 18:14:22.583912,-69.0
2023-08-09 18:14:22.591603,-69.0
2023-08-09 18:14:22.599293,-66.0
2023-08-09 18:14:22.606984,-66.0
2023-08-09 18:14:22.614674,-64.0
2023-08-09 18:14:22.622365,-59.0
2023-08-09 18:14:22.630055,-59.0
2023-08-09 18:14:22.637746,-64.0
2023-08-09 18:14:22.645437,-64.0
2023-08-09 18:14:22.653127,-57.0
2023-08-09 18:14:22.660818,-54.0
2023-08-09 18:14:22.668508,-54.0
2023-08-09 18:14:22.676199,-54.0
2023-08-09 18:14:22.683889,-57.0
2023-08-09 18:14:22.691580,-57.0
2023-08-09 18:14:22.699270,-42.0
2023-08-09 18:14:22.706961,-28.0
2023-08-09 18:14:22.714651,-21.0
2023-08-09 18:14:22.722342,-16.0
2023-08-09 18:14:22.730032,-26.0
2023-08-09 18:14:22.737723,-50.0
2023-08-09 18:14:22.745414,-66.0
2023-08-09 18:14:22.753104,-71.0
2023-08-09 18:14:22.760795,-74.0
2023-08-09 18:14:22.768485,-78.0
2023-08-09 18:14:22.776176,-83.0
2023-08-09 18:14:22.783866,-85.0
2023-08-09 18:14:22.791557,-83.0
2023-08-09 18:14:22.799247,-81.0
2023-08-09 18:14:22.806938,-90.0
2023-08-09 18:14:22.814628,-66.0
2023-08-09 18:14:22.822319,145.0
2023-08-09 18:14:22.830010,632.0
2023-08-09 18:14:22.837700,1148.0
2023-08-09 18:14:22.845391,1296.0
2023-08-09 18:14:22.853081,943.0
2023-08-09 18:14:22.860772,367.0
2023-08-09 18:14:22.868462,-57.0
2023-08-09 18:14:22.876153,-181.0
2023-08-09 18:14:22.883843,-155.0
2023-08-09 18:14:22.891534,-183.0
2023-08-09 18:14:22.899224,-229.0
2023-08-09 18:14:22.906915,-219.0
2023-08-09 18:14:22.914606,-210.0
2023-08-09 18:14:22.922296,-207.0
2023-08-09 18:14:22.929987,-188.0
2023-08-09 18:14:22.937677,-171.0
2023-08-09 18:14:22.945368,-162.0
2023-08-09 18:14:22.953058,-150.0
2023-08-09 18:14:22.960749,-136.0
2023-08-09 18:14:22.968439,-121.0
2023-08-09 18:14:22.976130,-100.0
2023-08-09 18:14:22.983820,-81.0
2023-08-09 18:14:22.991511,-66.0
2023-08-09 18:14:22.999201,-54.0
2023-08-09 18:14:23.006892,-38.0
2023-08-09 18:14:23.014583,-19.0
2023-08-09 18:14:23.022273,2.0
2023-08-09 18:14:23.029964,26.0
2023-08-09 18:14:23.037654,45.0
2023-08-09 18:14:23.045345,62.0
2023-08-09 18:14:23.053035,78.0
2023-08-09 18:14:23.060726,93.0
2023-08-09 18:14:23.068416,100.0
2023-08-09 18:14:23.076107,105.0
2023-08-09 18:14:23.083797,102.0
2023-08-09 18:14:23.091488,85.0
2023-08-09 18:14:23.099179,59.0
2023-08-09 18:14:23.106869,31.0
2023-08-09 18:14:23.114560,-7.0
2023-08-09 18:14:23.122250,-50.0
2023-08-09 18:14:23.129941,-88.0
2023-08-09 18:14:23.137631,-121.0
2023-08-09 18:14:23.145322,-150.0
2023-08-09 18:14:23.153012,-169.0
2023-08-09 18:14:23.160703,-183.0
2023-08-09 18:14:23.168393,-191.0
2023-08-09 18:14:23.176084,-193.0
2023-08-09 18:14:23.183775,-193.0
2023-08-09 18:14:23.191465,-195.0
2023-08-09 18:14:23.199156,-191.0
2023-08-09 18:14:23.206846,-183.0
2023-08-09 18:14:23.214537,-174.0
2023-08-09 18:14:23.222227,-169.0
2023-08-09 18:14:23.229918,-164.0
2023-08-09 18:14:23.237608,-157.0
2023-08-09 18:14:23.245299,-155.0
2023-08-09 18:14:23.252989,-155.0
2023-08-09 18:14:23.260680,-150.0
2023-08-09 18:14:23.268371,-148.0
2023-08-09 18:14:23.276061,-148.0
2023-08-09 18:14:23.283752,-145.0
2023-08-09 18:14:23.291442,-140.0
2023-08-09 18:14:23.299133,-138.0
2023-08-09 18:14:23.306823,-138.0
2023-08-09 18:14:23.314514,-138.0
2023-08-09 18:14:23.322204,-136.0
2023-08-09 18:14:23.329895,-133.0
2023-08-09 18:14:23.337585,-131.0
2023-08-09 18:14:23.345276,-131.0
2023-08-09 18:14:23.352966,-133.0
2023-08-09 18:14:23.360657,-138.0
2023-08-09 18:14:23.368348,-138.0
2023-08-09 18:14:23.376038,-136.0
2023-08-09 18:14:23.383729,-136.0
2023-08-09 18:14:23.391419,-136.0
2023-08-09 18:14:23.399110,-128.0
2023-08-09 18:14:23.406800,-126.0
2023-08-09 18:14:23.414491,-126.0
2023-08-09 18:14:23.422181,-121.0
2023-08-09 18:14:23.429872,-119.0
2023-08-09 18:14:23.437562,-119.0
2023-08-09 18:14:23.445253,-119.0
2023-08-09 18:14:23.452944,-117.0
2023-08-09 18:14:23.460634,-112.0
2023-08-09 18:14:23.468325,-109.0
2023-08-09 18:14:23.476015,-109.0
2023-08-09 18:14:23.483706,-109.0
2023-08-09 18:14:23.491396,-107.0
2023-08-09 18:14:23.499087,-107.0
2023-08-09 18:14:23.506777,-105.0
2023-08-09 18:14:23.514468,-97.0
2023-08-09 18:14:23.522158,-97.0
2023-08-09 18:14:23.529849,-100.0
2023-08-09 18:14:23.537540,-97.0
2023-08-09 18:14:23.545230,-93.0
2023-08-09 18:14:23.552921,-88.0
2023-08-09 18:14:23.560611,-88.0
2023-08-09 18:14:23.568302,-90.0
2023-08-09 18:14:23.575992,-88.0
2023-08-09 18:14:23.583683,-85.0
2023-08-09 18:14:23.591373,-85.0
2023-08-09 18:14:23.599064,-85.0
2023-08-09 18:14:23.606754,-83.0
2023-08-09 18:14:23.614445,-83.0
2023-08-09 18:14:23.622135,-83.0
2023-08-09 18:14:23.629826,-76.0
2023-08-09 18:14:23.637517,-64.0
2023-08-09 18:14:23.645207,-50.0
2023-08-09 18:14:23.652898,-38.0
2023-08-09 18:14:23.660588,-33.0
2023-08-09 18:14:23.668279,-40.0
2023-08-09 18:14:23.675969,-62.0
2023-08-09 18:14:23.683660,-81.0
2023-08-09 18:14:23.691350,-88.0
2023-08-09 18:14:23.699041,-93.0
2023-08-09 18:14:23.706731,-97.0
2023-08-09 18:14:23.714422,-97.0
2023-08-09 18:14:23.722113,-95.0
2023-08-09 18:14:23.729803,-93.0
2023-08-09 18:14:23.737494,-90.0
2023-08-09 18:14:23.745184,-102.0
2023-08-09 18:14:23.752875,-59.0
2023-08-09 18:14:23.760565,219.0
2023-08-09 18:14:23.768256,781.0
2023-08-09 18:14:23.775946,1299.0
2023-08-09 18:14:23.783637,1328.0
2023-08-09 18:14:23.791327,826.0
2023-08-09 18:14:23.799018,207.0
2023-08-09 18:14:23.806709,-128.0
2023-08-09 18:14:23.814399,-167.0
2023-08-09 18:14:23.822090,-157.0
2023-08-09 18:14:23.829780,-210.0
2023-08-09 18:14:23.837471,-229.0
2023-08-09 18:14:23.845161,-210.0
2023-08-09 18:14:23.852852,-207.0
2023-08-09 18:14:23.860542,-203.0
2023-08-09 18:14:23.868233,-181.0
2023-08-09 18:14:23.875923,-164.0
2023-08-09 18:14:23.883614,-155.0
2023-08-09 18:14:23.891304,-143.0
2023-08-09 18:14:23.898995,-133.0
2023-08-09 18:14:23.906686,-119.0
2023-08-09 18:14:23.914376,-97.0
2023-08-09 18:14:23.922067,-76.0
2023-08-09 18:14:23.929757,-59.0
2023-08-09 18:14:23.937448,-40.0
2023-08-09 18:14:23.945138,-19.0
2023-08-09 18:14:23.952829,0.0
2023-08-09 18:14:23.960519,21.0
2023-08-09 18:14:23.968210,45.0
2023-08-09 18:14:23.975900,64.0
2023-08-09 18:14:23.983591,83.0
2023-08-09 18:14:23.991282,100.0
2023-08-09 18:14:23.998972,112.0
2023-08-09 18:14:24.006663,119.0
2023-08-09 18:14:24.014353,119.0
2023-08-09 18:14:24.022044,107.0
2023-08-09 18:14:24.029734,83.0
2023-08-09 18:14:24.037425,57.0
2023-08-09 18:14:24.045115,23.0
2023-08-09 18:14:24.052806,-16.0
2023-08-09 18:14:24.060496,-59.0
2023-08-09 18:14:24.068187,-100.0
2023-08-09 18:14:24.075878,-136.0
2023-08-09 18:14:24.083568,-160.0
2023-08-09 18:14:24.091259,-176.0
2023-08-09 18:14:24.098949,-186.0
2023-08-09 18:14:24.106640,-191.0
2023-08-09 18:14:24.114330,-193.0
2023-08-09 18:14:24.122021,-191.0
2023-08-09 18:14:24.129711,-186.0
2023-08-09 18:14:24.137402,-176.0
2023-08-09 18:14:24.145092,-169.0
2023-08-09 18:14:24.152783,-162.0
2023-08-09 18:14:24.160473,-155.0
2023-08-09 18:14:24.168164,-148.0
2023-08-09 18:14:24.175855,-143.0
2023-08-09 18:14:24.183545,-133.0
2023-08-09 18:14:24.191236,-131.0
2023-08-09 18:14:24.198926,-133.0
2023-08-09 18:14:24.206617,-133.0
2023-08-09 18:14:24.214307,-128.0
2023-08-09 18:14:24.221998,-126.0
2023-08-09 18:14:24.229688,-126.0
2023-08-09 18:14:24.237379,-128.0
2023-08-09 18:14:24.245069,-126.0
2023-08-09 18:14:24.252760,-128.0
2023-08-09 18:14:24.260451,-131.0
2023-08-09 18:14:24.268141,-128.0
2023-08-09 18:14:24.275832,-126.0
2023-08-09 18:14:24.283522,-124.0
2023-08-09 18:14:24.291213,-121.0
2023-08-09 18:14:24.298903,-121.0
2023-08-09 18:14:24.306594,-119.0
2023-08-09 18:14:24.314284,-117.0
2023-08-09 18:14:24.321975,-114.0
2023-08-09 18:14:24.329665,-112.0
2023-08-09 18:14:24.337356,-109.0
2023-08-09 18:14:24.345047,-107.0
2023-08-09 18:14:24.352737,-107.0
2023-08-09 18:14:24.360428,-107.0
2023-08-09 18:14:24.368118,-102.0
2023-08-09 18:14:24.375809,-100.0
2023-08-09 18:14:24.383499,-97.0
2023-08-09 18:14:24.391190,-97.0
2023-08-09 18:14:24.398880,-95.0
2023-08-09 18:14:24.406571,-93.0
2023-08-09 18:14:24.414261,-90.0
2023-08-09 18:14:24.421952,-88.0
2023-08-09 18:14:24.429643,-88.0
2023-08-09 18:14:24.437333,-88.0
2023-08-09 18:14:24.445024,-88.0
2023-08-09 18:14:24.452714,-83.0
2023-08-09 18:14:24.460405,-83.0
2023-08-09 18:14:24.468095,-83.0
2023-08-09 18:14:24.475786,-81.0
2023-08-09 18:14:24.483476,-81.0
2023-08-09 18:14:24.491167,-83.0
2023-08-09 18:14:24.498857,-81.0
2023-08-09 18:14:24.506548,-78.0
2023-08-09 18:14:24.514238,-81.0
2023-08-09 18:14:24.521929,-83.0
2023-08-09 18:14:24.529620,-88.0
2023-08-09 18:14:24.537310,-93.0
2023-08-09 18:14:24.545001,-90.0
2023-08-09 18:14:24.552691,-85.0
2023-08-09 18:14:24.560382,-81.0
2023-08-09 18:14:24.568072,-66.0
2023-08-09 18:14:24.575763,-52.0
2023-08-09 18:14:24.583453,-45.0
2023-08-09 18:14:24.591144,-42.0
2023-08-09 18:14:24.598834,-50.0
2023-08-09 18:14:24.606525,-71.0
2023-08-09 18:14:24.614216,-90.0
2023-08-09 18:14:24.621906,-95.0
2023-08-09 18:14:24.629597,-97.0
2023-08-09 18:14:24.637287,-95.0
2023-08-09 18:14:24.644978,-93.0
2023-08-09 18:14:24.652668,-90.0
2023-08-09 18:14:24.660359,-88.0
2023-08-09 18:14:24.668049,-90.0
2023-08-09 18:14:24.675740,-102.0
2023-08-09 18:14:24.683430,-54.0
2023-08-09 18:14:24.691121,224.0
2023-08-09 18:14:24.698812,759.0
2023-08-09 18:14:24.706502,1246.0
2023-08-09 18:14:24.714193,1313.0
2023-08-09 18:14:24.721883,900.0
2023-08-09 18:14:24.729574,298.0
2023-08-09 18:14:24.737264,-119.0
2023-08-09 18:14:24.744955,-198.0
2023-08-09 18:14:24.752645,-160.0
2023-08-09 18:14:24.760336,-207.0
2023-08-09 18:14:24.768026,-246.0
2023-08-09 18:14:24.775717,-222.0
2023-08-09 18:14:24.783407,-210.0
2023-08-09 18:14:24.791098,-212.0
2023-08-09 18:14:24.798789,-195.0
2023-08-09 18:14:24.806479,-176.0
2023-08-09 18:14:24.814170,-167.0
2023-08-09 18:14:24.821860,-150.0
2023-08-09 18:14:24.829551,-133.0
2023-08-09 18:14:24.837241,-119.0
2023-08-09 18:14:24.844932,-102.0
2023-08-09 18:14:24.852622,-83.0
2023-08-09 18:14:24.860313,-66.0
2023-08-09 18:14:24.868003,-47.0
2023-08-09 18:14:24.875694,-26.0
2023-08-09 18:14:24.883385,-7.0
2023-08-09 18:14:24.891075,11.0
2023-08-09 18:14:24.898766,33.0
2023-08-09 18:14:24.906456,52.0
2023-08-09 18:14:24.914147,74.0
2023-08-09 18:14:24.921837,93.0
2023-08-09 18:14:24.929528,105.0
2023-08-09 18:14:24.937218,109.0
2023-08-09 18:14:24.944909,109.0
2023-08-09 18:14:24.952599,102.0
2023-08-09 18:14:24.960290,85.0
2023-08-09 18:14:24.967981,57.0
2023-08-09 18:14:24.975671,19.0
2023-08-09 18:14:24.983362,-21.0
2023-08-09 18:14:24.991052,-64.0
2023-08-09 18:14:24.998743,-107.0
2023-08-09 18:14:25.006433,-140.0
2023-08-09 18:14:25.014124,-164.0
2023-08-09 18:14:25.021814,-191.0
2023-08-09 18:14:25.029505,-210.0
2023-08-09 18:14:25.037195,-210.0
2023-08-09 18:14:25.044886,-210.0
2023-08-09 18:14:25.052576,-212.0
2023-08-09 18:14:25.060267,-203.0
2023-08-09 18:14:25.067958,-195.0
2023-08-09 18:14:25.075648,-191.0
2023-08-09 18:14:25.083339,-183.0
2023-08-09 18:14:25.091029,-176.0
2023-08-09 18:14:25.098720,-171.0
2023-08-09 18:14:25.106410,-164.0
2023-08-09 18:14:25.114101,-157.0
2023-08-09 18:14:25.121791,-155.0
2023-08-09 18:14:25.129482,-150.0
2023-08-09 18:14:25.137172,-145.0
2023-08-09 18:14:25.144863,-143.0
2023-08-09 18:14:25.152554,-138.0
2023-08-09 18:14:25.160244,-136.0
2023-08-09 18:14:25.167935,-131.0
2023-08-09 18:14:25.175625,-131.0
2023-08-09 18:14:25.183316,-131.0
2023-08-09 18:14:25.191006,-128.0
2023-08-09 18:14:25.198697,-128.0
2023-08-09 18:14:25.206387,-131.0
2023-08-09 18:14:25.214078,-133.0
2023-08-09 18:14:25.221768,-136.0
2023-08-09 18:14:25.229459,-136.0
2023-08-09 18:14:25.237150,-128.0
2023-08-09 18:14:25.244840,-128.0
2023-08-09 18:14:25.252531,-128.0
2023-08-09 18:14:25.260221,-126.0
2023-08-09 18:14:25.267912,-121.0
2023-08-09 18:14:25.275602,-119.0
2023-08-09 18:14:25.283293,-119.0
2023-08-09 18:14:25.290983,-117.0
2023-08-09 18:14:25.298674,-117.0
2023-08-09 18:14:25.306364,-112.0
2023-08-09 18:14:25.314055,-109.0
2023-08-09 18:14:25.321746,-109.0
2023-08-09 18:14:25.329436,-107.0
2023-08-09 18:14:25.337127,-105.0
2023-08-09 18:14:25.344817,-102.0
2023-08-09 18:14:25.352508,-100.0
2023-08-09 18:14:25.360198,-97.0
2023-08-09 18:14:25.367889,-95.0
2023-08-09 18:14:25.375579,-95.0
2023-08-09 18:14:25.383270,-93.0
2023-08-09 18:14:25.390960,-90.0
2023-08-09 18:14:25.398651,-90.0
2023-08-09 18:14:25.406341,-90.0
2023-08-09 18:14:25.414032,-88.0
2023-08-09 18:14:25.421723,-83.0
2023-08-09 18:14:25.429413,-85.0
2023-08-09 18:14:25.437104,-85.0
2023-08-09 18:14:25.444794,-83.0
2023-08-09 18:14:25.452485,-81.0
2023-08-09 18:14:25.460175,-83.0
2023-08-09 18:14:25.467866,-85.0
2023-08-09 18:14:25.475556,-88.0
2023-08-09 18:14:25.483247,-88.0
2023-08-09 18:14:25.490937,-85.0
2023-08-09 18:14:25.498628,-83.0
2023-08-09 18:14:25.506319,-83.0
2023-08-09 18:14:25.514009,-83.0
2023-08-09 18:14:25.521700,-74.0
2023-08-09 18:14:25.529390,-59.0
2023-08-09 18:14:25.537081,-45.0
2023-08-09 18:14:25.544771,-38.0
2023-08-09 18:14:25.552462,-38.0
2023-08-09 18:14:25.560152,-62.0
2023-08-09 18:14:25.567843,-90.0
2023-08-09 18:14:25.575533,-102.0
2023-08-09 18:14:25.583224,-105.0
2023-08-09 18:14:25.590915,-109.0
2023-08-09 18:14:25.598605,-107.0
2023-08-09 18:14:25.606296,-105.0
2023-08-09 18:14:25.613986,-105.0
2023-08-09 18:14:25.621677,-100.0
2023-08-09 18:14:25.629367,-100.0
2023-08-09 18:14:25.637058,-109.0
2023-08-09 18:14:25.644748,-14.0
2023-08-09 18:14:25.652439,348.0
2023-08-09 18:14:25.660129,902.0
2023-08-09 18:14:25.667820,1292.0
2023-08-09 18:14:25.675510,1201.0
2023-08-09 18:14:25.683201,699.0
2023-08-09 18:14:25.690892,136.0
2023-08-09 18:14:25.698582,-174.0
2023-08-09 18:14:25.706273,-188.0
2023-08-09 18:14:25.713963,-171.0
2023-08-09 18:14:25.721654,-241.0
2023-08-09 18:14:25.729344,-255.0
2023-08-09 18:14:25.737035,-229.0
2023-08-09 18:14:25.744725,-231.0
2023-08-09 18:14:25.752416,-226.0
2023-08-09 18:14:25.760106,-200.0
2023-08-09 18:14:25.767797,-186.0
2023-08-09 18:14:25.775488,-176.0
2023-08-09 18:14:25.783178,-160.0
2023-08-09 18:14:25.790869,-145.0
2023-08-09 18:14:25.798559,-126.0
2023-08-09 18:14:25.806250,-107.0
2023-08-09 18:14:25.813940,-88.0
2023-08-09 18:14:25.821631,-74.0
2023-08-09 18:14:25.829321,-57.0
2023-08-09 18:14:25.837012,-38.0
2023-08-09 18:14:25.844702,-19.0
2023-08-09 18:14:25.852393,2.0
2023-08-09 18:14:25.860084,26.0
2023-08-09 18:14:25.867774,42.0
2023-08-09 18:14:25.875465,59.0
2023-08-09 18:14:25.883155,74.0
2023-08-09 18:14:25.890846,85.0
2023-08-09 18:14:25.898536,88.0
2023-08-09 18:14:25.906227,83.0
2023-08-09 18:14:25.913917,74.0
2023-08-09 18:14:25.921608,57.0
2023-08-09 18:14:25.929298,33.0
2023-08-09 18:14:25.936989,2.0
2023-08-09 18:14:25.944679,-38.0
2023-08-09 18:14:25.952370,-81.0
2023-08-09 18:14:25.960061,-119.0
2023-08-09 18:14:25.967751,-152.0
2023-08-09 18:14:25.975442,-176.0
2023-08-09 18:14:25.983132,-191.0
2023-08-09 18:14:25.990823,-203.0
2023-08-09 18:14:25.998513,-207.0
2023-08-09 18:14:26.006204,-205.0
2023-08-09 18:14:26.013894,-200.0
2023-08-09 18:14:26.021585,-198.0
2023-08-09 18:14:26.029275,-191.0
2023-08-09 18:14:26.036966,-183.0
2023-08-09 18:14:26.044657,-174.0
2023-08-09 18:14:26.052347,-169.0
2023-08-09 18:14:26.060038,-169.0
2023-08-09 18:14:26.067728,-162.0
2023-08-09 18:14:26.075419,-155.0
2023-08-09 18:14:26.083109,-150.0
2023-08-09 18:14:26.090800,-148.0
2023-08-09 18:14:26.098490,-150.0
2023-08-09 18:14:26.106181,-155.0
2023-08-09 18:14:26.113871,-150.0
2023-08-09 18:14:26.121562,-145.0
2023-08-09 18:14:26.129253,-145.0
2023-08-09 18:14:26.136943,-140.0
2023-08-09 18:14:26.144634,-138.0
2023-08-09 18:14:26.152324,-143.0
2023-08-09 18:14:26.160015,-140.0
2023-08-09 18:14:26.167705,-136.0
2023-08-09 18:14:26.175396,-133.0
2023-08-09 18:14:26.183086,-133.0
2023-08-09 18:14:26.190777,-131.0
2023-08-09 18:14:26.198467,-131.0
2023-08-09 18:14:26.206158,-131.0
2023-08-09 18:14:26.213848,-128.0
2023-08-09 18:14:26.221539,-124.0
2023-08-09 18:14:26.229230,-124.0
2023-08-09 18:14:26.236920,-124.0
2023-08-09 18:14:26.244611,-121.0
2023-08-09 18:14:26.252301,-117.0
2023-08-09 18:14:26.259992,-114.0
2023-08-09 18:14:26.267682,-112.0
2023-08-09 18:14:26.275373,-109.0
2023-08-09 18:14:26.283063,-105.0
2023-08-09 18:14:26.290754,-105.0
2023-08-09 18:14:26.298444,-102.0
2023-08-09 18:14:26.306135,-100.0
2023-08-09 18:14:26.313826,-97.0
2023-08-09 18:14:26.321516,-95.0
2023-08-09 18:14:26.329207,-95.0
2023-08-09 18:14:26.336897,-95.0
2023-08-09 18:14:26.344588,-90.0
2023-08-09 18:14:26.352278,-88.0
2023-08-09 18:14:26.359969,-85.0
2023-08-09 18:14:26.367659,-85.0
2023-08-09 18:14:26.375350,-85.0
2023-08-09 18:14:26.383040,-85.0
2023-08-09 18:14:26.390731,-85.0
2023-08-09 18:14:26.398422,-88.0
2023-08-09 18:14:26.406112,-90.0
2023-08-09 18:14:26.413803,-88.0
2023-08-09 18:14:26.421493,-85.0
2023-08-09 18:14:26.429184,-85.0
2023-08-09 18:14:26.436874,-83.0
2023-08-09 18:14:26.444565,-81.0
2023-08-09 18:14:26.452255,-83.0
2023-08-09 18:14:26.459946,-85.0
2023-08-09 18:14:26.467636,-83.0
2023-08-09 18:14:26.475327,-85.0
2023-08-09 18:14:26.483018,-85.0
2023-08-09 18:14:26.490708,-83.0
2023-08-09 18:14:26.498399,-81.0
2023-08-09 18:14:26.506089,-81.0
2023-08-09 18:14:26.513780,-81.0
2023-08-09 18:14:26.521470,-71.0
2023-08-09 18:14:26.529161,-57.0
2023-08-09 18:14:26.536851,-40.0
2023-08-09 18:14:26.544542,-35.0
2023-08-09 18:14:26.552232,-40.0
2023-08-09 18:14:26.559923,-57.0
2023-08-09 18:14:26.567613,-81.0
2023-08-09 18:14:26.575304,-88.0
2023-08-09 18:14:26.582995,-88.0
2023-08-09 18:14:26.590685,-90.0
2023-08-09 18:14:26.598376,-90.0
2023-08-09 18:14:26.606066,-90.0
2023-08-09 18:14:26.613757,-85.0
2023-08-09 18:14:26.621447,-83.0
2023-08-09 18:14:26.629138,-90.0
2023-08-09 18:14:26.636828,-90.0
2023-08-09 18:14:26.644519,35.0
2023-08-09 18:14:26.652209,434.0
2023-08-09 18:14:26.659900,988.0
2023-08-09 18:14:26.667591,1308.0
2023-08-09 18:14:26.675281,1115.0
2023-08-09 18:14:26.682972,573.0
2023-08-09 18:14:26.690662,71.0
2023-08-09 18:14:26.698353,-164.0
2023-08-09 18:14:26.706043,-162.0
2023-08-09 18:14:26.713734,-162.0
2023-08-09 18:14:26.721424,-222.0
2023-08-09 18:14:26.729115,-231.0
2023-08-09 18:14:26.736805,-212.0
2023-08-09 18:14:26.744496,-212.0
2023-08-09 18:14:26.752187,-207.0
2023-08-09 18:14:26.759877,-188.0
2023-08-09 18:14:26.767568,-174.0
2023-08-09 18:14:26.775258,-167.0
2023-08-09 18:14:26.782949,-160.0
2023-08-09 18:14:26.790639,-140.0
2023-08-09 18:14:26.798330,-121.0
2023-08-09 18:14:26.806020,-107.0
2023-08-09 18:14:26.813711,-93.0
2023-08-09 18:14:26.821401,-74.0
2023-08-09 18:14:26.829092,-54.0
2023-08-09 18:14:26.836782,-35.0
2023-08-09 18:14:26.844473,-16.0
2023-08-09 18:14:26.852164,0.0
2023-08-09 18:14:26.859854,21.0
2023-08-09 18:14:26.867545,42.0
2023-08-09 18:14:26.875235,59.0
2023-08-09 18:14:26.882926,71.0
2023-08-09 18:14:26.890616,83.0
2023-08-09 18:14:26.898307,88.0
2023-08-09 18:14:26.905997,83.0
2023-08-09 18:14:26.913688,74.0
2023-08-09 18:14:26.921378,59.0
2023-08-09 18:14:26.929069,35.0
2023-08-09 18:14:26.936760,2.0
2023-08-09 18:14:26.944450,-38.0
2023-08-09 18:14:26.952141,-76.0
2023-08-09 18:14:26.959831,-114.0
2023-08-09 18:14:26.967522,-145.0
2023-08-09 18:14:26.975212,-167.0
2023-08-09 18:14:26.982903,-181.0
2023-08-09 18:14:26.990593,-195.0
2023-08-09 18:14:26.998284,-200.0
2023-08-09 18:14:27.005974,-200.0
2023-08-09 18:14:27.013665,-195.0
2023-08-09 18:14:27.021356,-188.0
2023-08-09 18:14:27.029046,-179.0
2023-08-09 18:14:27.036737,-171.0
2023-08-09 18:14:27.044427,-169.0
2023-08-09 18:14:27.052118,-167.0
2023-08-09 18:14:27.059808,-160.0
2023-08-09 18:14:27.067499,-152.0
2023-08-09 18:14:27.075189,-148.0
2023-08-09 18:14:27.082880,-145.0
2023-08-09 18:14:27.090570,-143.0
2023-08-09 18:14:27.098261,-143.0
2023-08-09 18:14:27.105951,-140.0
2023-08-09 18:14:27.113642,-136.0
2023-08-09 18:14:27.121333,-136.0
2023-08-09 18:14:27.129023,-131.0
2023-08-09 18:14:27.136714,-131.0
2023-08-09 18:14:27.144404,-136.0
2023-08-09 18:14:27.152095,-133.0
2023-08-09 18:14:27.159785,-128.0
2023-08-09 18:14:27.167476,-128.0
2023-08-09 18:14:27.175166,-131.0
2023-08-09 18:14:27.182857,-128.0
2023-08-09 18:14:27.190547,-126.0
2023-08-09 18:14:27.198238,-124.0
2023-08-09 18:14:27.205929,-124.0
2023-08-09 18:14:27.213619,-121.0
2023-08-09 18:14:27.221310,-119.0
2023-08-09 18:14:27.229000,-119.0
2023-08-09 18:14:27.236691,-121.0
2023-08-09 18:14:27.244381,-119.0
2023-08-09 18:14:27.252072,-112.0
2023-08-09 18:14:27.259762,-109.0
2023-08-09 18:14:27.267453,-114.0
2023-08-09 18:14:27.275143,-119.0
2023-08-09 18:14:27.282834,-119.0
2023-08-09 18:14:27.290525,-112.0
2023-08-09 18:14:27.298215,-107.0
2023-08-09 18:14:27.305906,-107.0
2023-08-09 18:14:27.313596,-107.0
2023-08-09 18:14:27.321287,-107.0
2023-08-09 18:14:27.328977,-102.0
2023-08-09 18:14:27.336668,-100.0
2023-08-09 18:14:27.344358,-97.0
2023-08-09 18:14:27.352049,-95.0
2023-08-09 18:14:27.359739,-90.0
2023-08-09 18:14:27.367430,-90.0
2023-08-09 18:14:27.375120,-90.0
2023-08-09 18:14:27.382811,-90.0
2023-08-09 18:14:27.390502,-95.0
2023-08-09 18:14:27.398192,-95.0
2023-08-09 18:14:27.405883,-93.0
2023-08-09 18:14:27.413573,-93.0
2023-08-09 18:14:27.421264,-93.0
2023-08-09 18:14:27.428954,-88.0
2023-08-09 18:14:27.436645,-90.0
2023-08-09 18:14:27.444335,-97.0
2023-08-09 18:14:27.452026,-93.0
2023-08-09 18:14:27.459716,-88.0
2023-08-09 18:14:27.467407,-88.0
2023-08-09 18:14:27.475098,-88.0
2023-08-09 18:14:27.482788,-74.0
2023-08-09 18:14:27.490479,-57.0
2023-08-09 18:14:27.498169,-54.0
2023-08-09 18:14:27.505860,-50.0
2023-08-09 18:14:27.513550,-52.0
2023-08-09 18:14:27.521241,-78.0
2023-08-09 18:14:27.528931,-95.0
2023-08-09 18:14:27.536622,-95.0
2023-08-09 18:14:27.544312,-93.0
2023-08-09 18:14:27.552003,-95.0
2023-08-09 18:14:27.559694,-93.0
2023-08-09 18:14:27.567384,-90.0
2023-08-09 18:14:27.575075,-85.0
2023-08-09 18:14:27.582765,-85.0
2023-08-09 18:14:27.590456,-95.0
2023-08-09 18:14:27.598146,-11.0
2023-08-09 18:14:27.605837,339.0
2023-08-09 18:14:27.613527,931.0
2023-08-09 18:14:27.621218,1382.0
2023-08-09 18:14:27.628908,1273.0
2023-08-09 18:14:27.636599,690.0
2023-08-09 18:14:27.644290,109.0
2023-08-09 18:14:27.651980,-145.0
2023-08-09 18:14:27.659671,-143.0
2023-08-09 18:14:27.667361,-155.0
2023-08-09 18:14:27.675052,-217.0
2023-08-09 18:14:27.682742,-219.0
2023-08-09 18:14:27.690433,-205.0
2023-08-09 18:14:27.698123,-207.0
2023-08-09 18:14:27.705814,-195.0
2023-08-09 18:14:27.713504,-176.0
2023-08-09 18:14:27.721195,-167.0
2023-08-09 18:14:27.728885,-152.0
2023-08-09 18:14:27.736576,-131.0
2023-08-09 18:14:27.744267,-114.0
2023-08-09 18:14:27.751957,-100.0
2023-08-09 18:14:27.759648,-83.0
2023-08-09 18:14:27.767338,-69.0
2023-08-09 18:14:27.775029,-54.0
2023-08-09 18:14:27.782719,-33.0
2023-08-09 18:14:27.790410,-11.0
2023-08-09 18:14:27.798100,4.0
2023-08-09 18:14:27.805791,21.0
2023-08-09 18:14:27.813481,35.0
2023-08-09 18:14:27.821172,54.0
2023-08-09 18:14:27.828863,81.0
2023-08-09 18:14:27.836553,102.0
2023-08-09 18:14:27.844244,112.0
2023-08-09 18:14:27.851934,117.0
2023-08-09 18:14:27.859625,109.0
2023-08-09 18:14:27.867315,95.0
2023-08-09 18:14:27.875006,81.0
2023-08-09 18:14:27.882696,54.0
2023-08-09 18:14:27.890387,19.0
2023-08-09 18:14:27.898077,-26.0
2023-08-09 18:14:27.905768,-76.0
2023-08-09 18:14:27.913459,-119.0
2023-08-09 18:14:27.921149,-155.0
2023-08-09 18:14:27.928840,-183.0
2023-08-09 18:14:27.936530,-203.0
2023-08-09 18:14:27.944221,-212.0
2023-08-09 18:14:27.951911,-219.0
2023-08-09 18:14:27.959602,-219.0
2023-08-09 18:14:27.967292,-212.0
2023-08-09 18:14:27.974983,-205.0
2023-08-09 18:14:27.982673,-198.0
2023-08-09 18:14:27.990364,-188.0
2023-08-09 18:14:27.998054,-183.0
2023-08-09 18:14:28.005745,-179.0
2023-08-09 18:14:28.013436,-167.0
2023-08-09 18:14:28.021126,-157.0
2023-08-09 18:14:28.028817,-152.0
2023-08-09 18:14:28.036507,-148.0
2023-08-09 18:14:28.044198,-140.0
2023-08-09 18:14:28.051888,-136.0
2023-08-09 18:14:28.059579,-138.0
2023-08-09 18:14:28.067269,-136.0
2023-08-09 18:14:28.074960,-128.0
2023-08-09 18:14:28.082650,-128.0
2023-08-09 18:14:28.090341,-133.0
2023-08-09 18:14:28.098032,-133.0
2023-08-09 18:14:28.105722,-126.0
2023-08-09 18:14:28.113413,-121.0
2023-08-09 18:14:28.121103,-121.0
2023-08-09 18:14:28.128794,-121.0
2023-08-09 18:14:28.136484,-121.0
2023-08-09 18:14:28.144175,-117.0
2023-08-09 18:14:28.151865,-114.0
2023-08-09 18:14:28.159556,-114.0
2023-08-09 18:14:28.167246,-114.0
2023-08-09 18:14:28.174937,-114.0
2023-08-09 18:14:28.182628,-112.0
2023-08-09 18:14:28.190318,-107.0
2023-08-09 18:14:28.198009,-105.0
2023-08-09 18:14:28.205699,-102.0
2023-08-09 18:14:28.213390,-100.0
2023-08-09 18:14:28.221080,-97.0
2023-08-09 18:14:28.228771,-95.0
2023-08-09 18:14:28.236461,-95.0
2023-08-09 18:14:28.244152,-95.0
2023-08-09 18:14:28.251842,-88.0
2023-08-09 18:14:28.259533,-85.0
2023-08-09 18:14:28.267223,-83.0
2023-08-09 18:14:28.274914,-83.0
2023-08-09 18:14:28.282605,-85.0
2023-08-09 18:14:28.290295,-83.0
2023-08-09 18:14:28.297986,-76.0
2023-08-09 18:14:28.305676,-71.0
2023-08-09 18:14:28.313367,-76.0
2023-08-09 18:14:28.321057,-81.0
2023-08-09 18:14:28.328748,-78.0
2023-08-09 18:14:28.336438,-71.0
2023-08-09 18:14:28.344129,-57.0
2023-08-09 18:14:28.351819,-35.0
2023-08-09 18:14:28.359510,-28.0
2023-08-09 18:14:28.367201,-28.0
2023-08-09 18:14:28.374891,-40.0
2023-08-09 18:14:28.382582,-57.0
2023-08-09 18:14:28.390272,-74.0
2023-08-09 18:14:28.397963,-85.0
2023-08-09 18:14:28.405653,-93.0
2023-08-09 18:14:28.413344,-95.0
2023-08-09 18:14:28.421034,-95.0
2023-08-09 18:14:28.428725,-95.0
2023-08-09 18:14:28.436415,-90.0
2023-08-09 18:14:28.444106,-93.0
2023-08-09 18:14:28.451797,-105.0
2023-08-09 18:14:28.459487,2.0
2023-08-09 18:14:28.467178,420.0
2023-08-09 18:14:28.474868,1060.0
2023-08-09 18:14:28.482559,1464.0
2023-08-09 18:14:28.490249,1253.0
2023-08-09 18:14:28.497940,611.0
2023-08-09 18:14:28.505630,31.0
2023-08-09 18:14:28.513321,-179.0
2023-08-09 18:14:28.521011,-148.0
2023-08-09 18:14:28.528702,-169.0
2023-08-09 18:14:28.536393,-234.0
2023-08-09 18:14:28.544083,-219.0
2023-08-09 18:14:28.551774,-205.0
2023-08-09 18:14:28.559464,-212.0
2023-08-09 18:14:28.567155,-195.0
2023-08-09 18:14:28.574845,-176.0
2023-08-09 18:14:28.582536,-164.0
2023-08-09 18:14:28.590226,-148.0
2023-08-09 18:14:28.597917,-128.0
2023-08-09 18:14:28.605607,-117.0
2023-08-09 18:14:28.613298,-97.0
2023-08-09 18:14:28.620988,-78.0
2023-08-09 18:14:28.628679,-59.0
2023-08-09 18:14:28.636370,-40.0
2023-08-09 18:14:28.644060,-19.0
2023-08-09 18:14:28.651751,4.0
